0.1476469 0.8046684000000001 0.36777149 0.24389371 0.026613882000000002 -0.27440211 0.09673058300000001 -0.74773064 -1.6097771 -1.1795931
0.8046684000000001 0.36777149 0.24389371 0.026613882000000002 -0.27440211 0.09673058300000001 -0.74773064 -1.6097771 -1.1795931 -1.0559264
0.36777149 0.24389371 0.026613882000000002 -0.27440211 0.09673058300000001 -0.74773064 -1.6097771 -1.1795931 -1.0559264 -1.1287774
0.24389371 0.026613882000000002 -0.27440211 0.09673058300000001 -0.74773064 -1.6097771 -1.1795931 -1.0559264 -1.1287774 -0.68603867
0.026613882000000002 -0.27440211 0.09673058300000001 -0.74773064 -1.6097771 -1.1795931 -1.0559264 -1.1287774 -0.68603867 -0.79878866
-0.27440211 0.09673058300000001 -0.74773064 -1.6097771 -1.1795931 -1.0559264 -1.1287774 -0.68603867 -0.79878866 -1.7142791000000002
0.09673058300000001 -0.74773064 -1.6097771 -1.1795931 -1.0559264 -1.1287774 -0.68603867 -0.79878866 -1.7142791000000002 -1.6498583999999998
-0.74773064 -1.6097771 -1.1795931 -1.0559264 -1.1287774 -0.68603867 -0.79878866 -1.7142791000000002 -1.6498583999999998 -1.0326988000000001
-1.6097771 -1.1795931 -1.0559264 -1.1287774 -0.68603867 -0.79878866 -1.7142791000000002 -1.6498583999999998 -1.0326988000000001 -1.4239178999999997
-1.1795931 -1.0559264 -1.1287774 -0.68603867 -0.79878866 -1.7142791000000002 -1.6498583999999998 -1.0326988000000001 -1.4239178999999997 -1.7824332999999999
-1.0559264 -1.1287774 -0.68603867 -0.79878866 -1.7142791000000002 -1.6498583999999998 -1.0326988000000001 -1.4239178999999997 -1.7824332999999999 -1.0251257
-1.1287774 -0.68603867 -0.79878866 -1.7142791000000002 -1.6498583999999998 -1.0326988000000001 -1.4239178999999997 -1.7824332999999999 -1.0251257 -1.7989085999999999
-0.68603867 -0.79878866 -1.7142791000000002 -1.6498583999999998 -1.0326988000000001 -1.4239178999999997 -1.7824332999999999 -1.0251257 -1.7989085999999999 -1.7936136000000003
-0.79878866 -1.7142791000000002 -1.6498583999999998 -1.0326988000000001 -1.4239178999999997 -1.7824332999999999 -1.0251257 -1.7989085999999999 -1.7936136000000003 -1.0854783000000001
-1.7142791000000002 -1.6498583999999998 -1.0326988000000001 -1.4239178999999997 -1.7824332999999999 -1.0251257 -1.7989085999999999 -1.7936136000000003 -1.0854783000000001 -1.5743899
-1.6498583999999998 -1.0326988000000001 -1.4239178999999997 -1.7824332999999999 -1.0251257 -1.7989085999999999 -1.7936136000000003 -1.0854783000000001 -1.5743899 -1.0360595
-1.0326988000000001 -1.4239178999999997 -1.7824332999999999 -1.0251257 -1.7989085999999999 -1.7936136000000003 -1.0854783000000001 -1.5743899 -1.0360595 -2.1300209999999997
-1.4239178999999997 -1.7824332999999999 -1.0251257 -1.7989085999999999 -1.7936136000000003 -1.0854783000000001 -1.5743899 -1.0360595 -2.1300209999999997 -2.0386213
-1.7824332999999999 -1.0251257 -1.7989085999999999 -1.7936136000000003 -1.0854783000000001 -1.5743899 -1.0360595 -2.1300209999999997 -2.0386213 -0.05501273
-1.0251257 -1.7989085999999999 -1.7936136000000003 -1.0854783000000001 -1.5743899 -1.0360595 -2.1300209999999997 -2.0386213 -0.05501273 -1.1401948999999998
-1.7989085999999999 -1.7936136000000003 -1.0854783000000001 -1.5743899 -1.0360595 -2.1300209999999997 -2.0386213 -0.05501273 -1.1401948999999998 -0.70427521
-1.7936136000000003 -1.0854783000000001 -1.5743899 -1.0360595 -2.1300209999999997 -2.0386213 -0.05501273 -1.1401948999999998 -0.70427521 0.04872308400000001
-1.0854783000000001 -1.5743899 -1.0360595 -2.1300209999999997 -2.0386213 -0.05501273 -1.1401948999999998 -0.70427521 0.04872308400000001 -0.47585411
-1.5743899 -1.0360595 -2.1300209999999997 -2.0386213 -0.05501273 -1.1401948999999998 -0.70427521 0.04872308400000001 -0.47585411 0.52586518
-1.0360595 -2.1300209999999997 -2.0386213 -0.05501273 -1.1401948999999998 -0.70427521 0.04872308400000001 -0.47585411 0.52586518 0.24477767
-2.1300209999999997 -2.0386213 -0.05501273 -1.1401948999999998 -0.70427521 0.04872308400000001 -0.47585411 0.52586518 0.24477767 0.67993176
-2.0386213 -0.05501273 -1.1401948999999998 -0.70427521 0.04872308400000001 -0.47585411 0.52586518 0.24477767 0.67993176 0.9286011999999999
-0.05501273 -1.1401948999999998 -0.70427521 0.04872308400000001 -0.47585411 0.52586518 0.24477767 0.67993176 0.9286011999999999 0.57304095
-1.1401948999999998 -0.70427521 0.04872308400000001 -0.47585411 0.52586518 0.24477767 0.67993176 0.9286011999999999 0.57304095 1.2316066
-0.70427521 0.04872308400000001 -0.47585411 0.52586518 0.24477767 0.67993176 0.9286011999999999 0.57304095 1.2316066 1.0433243
0.04872308400000001 -0.47585411 0.52586518 0.24477767 0.67993176 0.9286011999999999 0.57304095 1.2316066 1.0433243 1.5802281
-0.47585411 0.52586518 0.24477767 0.67993176 0.9286011999999999 0.57304095 1.2316066 1.0433243 1.5802281 1.2905714
0.52586518 0.24477767 0.67993176 0.9286011999999999 0.57304095 1.2316066 1.0433243 1.5802281 1.2905714 0.75051788
0.24477767 0.67993176 0.9286011999999999 0.57304095 1.2316066 1.0433243 1.5802281 1.2905714 0.75051788 0.97756667
0.67993176 0.9286011999999999 0.57304095 1.2316066 1.0433243 1.5802281 1.2905714 0.75051788 0.97756667 1.1415881
0.9286011999999999 0.57304095 1.2316066 1.0433243 1.5802281 1.2905714 0.75051788 0.97756667 1.1415881 1.5299044
0.57304095 1.2316066 1.0433243 1.5802281 1.2905714 0.75051788 0.97756667 1.1415881 1.5299044 0.84768163
1.2316066 1.0433243 1.5802281 1.2905714 0.75051788 0.97756667 1.1415881 1.5299044 0.84768163 0.7667604
1.0433243 1.5802281 1.2905714 0.75051788 0.97756667 1.1415881 1.5299044 0.84768163 0.7667604 0.56568218
1.5802281 1.2905714 0.75051788 0.97756667 1.1415881 1.5299044 0.84768163 0.7667604 0.56568218 1.0846257
1.2905714 0.75051788 0.97756667 1.1415881 1.5299044 0.84768163 0.7667604 0.56568218 1.0846257 1.0573685
0.75051788 0.97756667 1.1415881 1.5299044 0.84768163 0.7667604 0.56568218 1.0846257 1.0573685 0.50308411
0.97756667 1.1415881 1.5299044 0.84768163 0.7667604 0.56568218 1.0846257 1.0573685 0.50308411 0.95328821
1.1415881 1.5299044 0.84768163 0.7667604 0.56568218 1.0846257 1.0573685 0.50308411 0.95328821 0.45419824
1.5299044 0.84768163 0.7667604 0.56568218 1.0846257 1.0573685 0.50308411 0.95328821 0.45419824 1.1989698
0.84768163 0.7667604 0.56568218 1.0846257 1.0573685 0.50308411 0.95328821 0.45419824 1.1989698 0.84971989
0.7667604 0.56568218 1.0846257 1.0573685 0.50308411 0.95328821 0.45419824 1.1989698 0.84971989 -0.13771474
0.56568218 1.0846257 1.0573685 0.50308411 0.95328821 0.45419824 1.1989698 0.84971989 -0.13771474 0.63112045
1.0846257 1.0573685 0.50308411 0.95328821 0.45419824 1.1989698 0.84971989 -0.13771474 0.63112045 0.69407501
1.0573685 0.50308411 0.95328821 0.45419824 1.1989698 0.84971989 -0.13771474 0.63112045 0.69407501 0.51507095
0.50308411 0.95328821 0.45419824 1.1989698 0.84971989 -0.13771474 0.63112045 0.69407501 0.51507095 0.5592294
0.95328821 0.45419824 1.1989698 0.84971989 -0.13771474 0.63112045 0.69407501 0.51507095 0.5592294 0.555712
0.45419824 1.1989698 0.84971989 -0.13771474 0.63112045 0.69407501 0.51507095 0.5592294 0.555712 0.46969403
1.1989698 0.84971989 -0.13771474 0.63112045 0.69407501 0.51507095 0.5592294 0.555712 0.46969403 0.38882121
0.84971989 -0.13771474 0.63112045 0.69407501 0.51507095 0.5592294 0.555712 0.46969403 0.38882121 0.34312937
-0.13771474 0.63112045 0.69407501 0.51507095 0.5592294 0.555712 0.46969403 0.38882121 0.34312937 0.53559788
0.63112045 0.69407501 0.51507095 0.5592294 0.555712 0.46969403 0.38882121 0.34312937 0.53559788 0.90070837
0.69407501 0.51507095 0.5592294 0.555712 0.46969403 0.38882121 0.34312937 0.53559788 0.90070837 0.65684587
0.51507095 0.5592294 0.555712 0.46969403 0.38882121 0.34312937 0.53559788 0.90070837 0.65684587 0.69003294
0.5592294 0.555712 0.46969403 0.38882121 0.34312937 0.53559788 0.90070837 0.65684587 0.69003294 0.9525963
0.555712 0.46969403 0.38882121 0.34312937 0.53559788 0.90070837 0.65684587 0.69003294 0.9525963 0.54776991
0.46969403 0.38882121 0.34312937 0.53559788 0.90070837 0.65684587 0.69003294 0.9525963 0.54776991 -0.16769268
0.38882121 0.34312937 0.53559788 0.90070837 0.65684587 0.69003294 0.9525963 0.54776991 -0.16769268 0.011531941
0.34312937 0.53559788 0.90070837 0.65684587 0.69003294 0.9525963 0.54776991 -0.16769268 0.011531941 -0.17648785
0.53559788 0.90070837 0.65684587 0.69003294 0.9525963 0.54776991 -0.16769268 0.011531941 -0.17648785 -0.27770647
0.90070837 0.65684587 0.69003294 0.9525963 0.54776991 -0.16769268 0.011531941 -0.17648785 -0.27770647 -0.22483592
0.65684587 0.69003294 0.9525963 0.54776991 -0.16769268 0.011531941 -0.17648785 -0.27770647 -0.22483592 -0.91072293
0.69003294 0.9525963 0.54776991 -0.16769268 0.011531941 -0.17648785 -0.27770647 -0.22483592 -0.91072293 -0.037931787
0.9525963 0.54776991 -0.16769268 0.011531941 -0.17648785 -0.27770647 -0.22483592 -0.91072293 -0.037931787 0.071667671
0.54776991 -0.16769268 0.011531941 -0.17648785 -0.27770647 -0.22483592 -0.91072293 -0.037931787 0.071667671 -1.0489198
-0.16769268 0.011531941 -0.17648785 -0.27770647 -0.22483592 -0.91072293 -0.037931787 0.071667671 -1.0489198 -0.63621758
0.011531941 -0.17648785 -0.27770647 -0.22483592 -0.91072293 -0.037931787 0.071667671 -1.0489198 -0.63621758 -0.38663674
-0.17648785 -0.27770647 -0.22483592 -0.91072293 -0.037931787 0.071667671 -1.0489198 -0.63621758 -0.38663674 -0.50751228
-0.27770647 -0.22483592 -0.91072293 -0.037931787 0.071667671 -1.0489198 -0.63621758 -0.38663674 -0.50751228 -0.7166559
-0.22483592 -0.91072293 -0.037931787 0.071667671 -1.0489198 -0.63621758 -0.38663674 -0.50751228 -0.7166559 -0.46375771
-0.91072293 -0.037931787 0.071667671 -1.0489198 -0.63621758 -0.38663674 -0.50751228 -0.7166559 -0.46375771 -0.46044227
-0.037931787 0.071667671 -1.0489198 -0.63621758 -0.38663674 -0.50751228 -0.7166559 -0.46375771 -0.46044227 -0.77079245
0.071667671 -1.0489198 -0.63621758 -0.38663674 -0.50751228 -0.7166559 -0.46375771 -0.46044227 -0.77079245 -0.53350348
-1.0489198 -0.63621758 -0.38663674 -0.50751228 -0.7166559 -0.46375771 -0.46044227 -0.77079245 -0.53350348 -0.4002281
-0.63621758 -0.38663674 -0.50751228 -0.7166559 -0.46375771 -0.46044227 -0.77079245 -0.53350348 -0.4002281 0.17608413
-0.38663674 -0.50751228 -0.7166559 -0.46375771 -0.46044227 -0.77079245 -0.53350348 -0.4002281 0.17608413 1.111768
-0.50751228 -0.7166559 -0.46375771 -0.46044227 -0.77079245 -0.53350348 -0.4002281 0.17608413 1.111768 2.4384282
-0.7166559 -0.46375771 -0.46044227 -0.77079245 -0.53350348 -0.4002281 0.17608413 1.111768 2.4384282 2.7348886
-0.46375771 -0.46044227 -0.77079245 -0.53350348 -0.4002281 0.17608413 1.111768 2.4384282 2.7348886 1.7360543999999998
-0.46044227 -0.77079245 -0.53350348 -0.4002281 0.17608413 1.111768 2.4384282 2.7348886 1.7360543999999998 0.036856551
-0.77079245 -0.53350348 -0.4002281 0.17608413 1.111768 2.4384282 2.7348886 1.7360543999999998 0.036856551 -1.2650743999999998
-0.53350348 -0.4002281 0.17608413 1.111768 2.4384282 2.7348886 1.7360543999999998 0.036856551 -1.2650743999999998 -0.20802439
