0.48223006 0.98683211 1.4437677 2.1864284 2.5175392999999997 1.878655 1.0926861 0.35257487 -0.29388443 -0.11538824
0.98683211 1.4437677 2.1864284 2.5175392999999997 1.878655 1.0926861 0.35257487 -0.29388443 -0.11538824 0.32008756
1.4437677 2.1864284 2.5175392999999997 1.878655 1.0926861 0.35257487 -0.29388443 -0.11538824 0.32008756 0.20484042
2.1864284 2.5175392999999997 1.878655 1.0926861 0.35257487 -0.29388443 -0.11538824 0.32008756 0.20484042 0.09906004
2.5175392999999997 1.878655 1.0926861 0.35257487 -0.29388443 -0.11538824 0.32008756 0.20484042 0.09906004 0.22945554
1.878655 1.0926861 0.35257487 -0.29388443 -0.11538824 0.32008756 0.20484042 0.09906004 0.22945554 0.24823268
1.0926861 0.35257487 -0.29388443 -0.11538824 0.32008756 0.20484042 0.09906004 0.22945554 0.24823268 0.18641973
0.35257487 -0.29388443 -0.11538824 0.32008756 0.20484042 0.09906004 0.22945554 0.24823268 0.18641973 -0.18922971
-0.29388443 -0.11538824 0.32008756 0.20484042 0.09906004 0.22945554 0.24823268 0.18641973 -0.18922971 -0.53960038
-0.11538824 0.32008756 0.20484042 0.09906004 0.22945554 0.24823268 0.18641973 -0.18922971 -0.53960038 -0.45736717
0.32008756 0.20484042 0.09906004 0.22945554 0.24823268 0.18641973 -0.18922971 -0.53960038 -0.45736717 -0.55985517
0.20484042 0.09906004 0.22945554 0.24823268 0.18641973 -0.18922971 -0.53960038 -0.45736717 -0.55985517 -0.68034464
0.09906004 0.22945554 0.24823268 0.18641973 -0.18922971 -0.53960038 -0.45736717 -0.55985517 -0.68034464 -0.53120819
0.22945554 0.24823268 0.18641973 -0.18922971 -0.53960038 -0.45736717 -0.55985517 -0.68034464 -0.53120819 -0.55707366
0.24823268 0.18641973 -0.18922971 -0.53960038 -0.45736717 -0.55985517 -0.68034464 -0.53120819 -0.55707366 -0.70828793
0.18641973 -0.18922971 -0.53960038 -0.45736717 -0.55985517 -0.68034464 -0.53120819 -0.55707366 -0.70828793 -0.79252432
-0.18922971 -0.53960038 -0.45736717 -0.55985517 -0.68034464 -0.53120819 -0.55707366 -0.70828793 -0.79252432 -0.80892495
-0.53960038 -0.45736717 -0.55985517 -0.68034464 -0.53120819 -0.55707366 -0.70828793 -0.79252432 -0.80892495 -0.89253087
-0.45736717 -0.55985517 -0.68034464 -0.53120819 -0.55707366 -0.70828793 -0.79252432 -0.80892495 -0.89253087 -1.1835253000000001
-0.55985517 -0.68034464 -0.53120819 -0.55707366 -0.70828793 -0.79252432 -0.80892495 -0.89253087 -1.1835253000000001 -1.3928976
-0.68034464 -0.53120819 -0.55707366 -0.70828793 -0.79252432 -0.80892495 -0.89253087 -1.1835253000000001 -1.3928976 -1.4238268
-0.53120819 -0.55707366 -0.70828793 -0.79252432 -0.80892495 -0.89253087 -1.1835253000000001 -1.3928976 -1.4238268 -1.6533368000000002
-0.55707366 -0.70828793 -0.79252432 -0.80892495 -0.89253087 -1.1835253000000001 -1.3928976 -1.4238268 -1.6533368000000002 -1.856352
-0.70828793 -0.79252432 -0.80892495 -0.89253087 -1.1835253000000001 -1.3928976 -1.4238268 -1.6533368000000002 -1.856352 -1.8704228999999999
-0.79252432 -0.80892495 -0.89253087 -1.1835253000000001 -1.3928976 -1.4238268 -1.6533368000000002 -1.856352 -1.8704228999999999 -2.2614426
-0.80892495 -0.89253087 -1.1835253000000001 -1.3928976 -1.4238268 -1.6533368000000002 -1.856352 -1.8704228999999999 -2.2614426 -2.453607
-0.89253087 -1.1835253000000001 -1.3928976 -1.4238268 -1.6533368000000002 -1.856352 -1.8704228999999999 -2.2614426 -2.453607 -2.2074149
-1.1835253000000001 -1.3928976 -1.4238268 -1.6533368000000002 -1.856352 -1.8704228999999999 -2.2614426 -2.453607 -2.2074149 -2.2577907
-1.3928976 -1.4238268 -1.6533368000000002 -1.856352 -1.8704228999999999 -2.2614426 -2.453607 -2.2074149 -2.2577907 -2.1794257999999997
-1.4238268 -1.6533368000000002 -1.856352 -1.8704228999999999 -2.2614426 -2.453607 -2.2074149 -2.2577907 -2.1794257999999997 -1.9632911
-1.6533368000000002 -1.856352 -1.8704228999999999 -2.2614426 -2.453607 -2.2074149 -2.2577907 -2.1794257999999997 -1.9632911 -1.8399026000000003
-1.856352 -1.8704228999999999 -2.2614426 -2.453607 -2.2074149 -2.2577907 -2.1794257999999997 -1.9632911 -1.8399026000000003 -1.5235893
-1.8704228999999999 -2.2614426 -2.453607 -2.2074149 -2.2577907 -2.1794257999999997 -1.9632911 -1.8399026000000003 -1.5235893 -1.3561556000000001
-2.2614426 -2.453607 -2.2074149 -2.2577907 -2.1794257999999997 -1.9632911 -1.8399026000000003 -1.5235893 -1.3561556000000001 -1.0186789
-2.453607 -2.2074149 -2.2577907 -2.1794257999999997 -1.9632911 -1.8399026000000003 -1.5235893 -1.3561556000000001 -1.0186789 -0.47368223
-2.2074149 -2.2577907 -2.1794257999999997 -1.9632911 -1.8399026000000003 -1.5235893 -1.3561556000000001 -1.0186789 -0.47368223 -0.34465464
-2.2577907 -2.1794257999999997 -1.9632911 -1.8399026000000003 -1.5235893 -1.3561556000000001 -1.0186789 -0.47368223 -0.34465464 -0.17375591
-2.1794257999999997 -1.9632911 -1.8399026000000003 -1.5235893 -1.3561556000000001 -1.0186789 -0.47368223 -0.34465464 -0.17375591 0.20482204
-1.9632911 -1.8399026000000003 -1.5235893 -1.3561556000000001 -1.0186789 -0.47368223 -0.34465464 -0.17375591 0.20482204 0.29904266
-1.8399026000000003 -1.5235893 -1.3561556000000001 -1.0186789 -0.47368223 -0.34465464 -0.17375591 0.20482204 0.29904266 0.31969949
-1.5235893 -1.3561556000000001 -1.0186789 -0.47368223 -0.34465464 -0.17375591 0.20482204 0.29904266 0.31969949 0.5891394
-1.3561556000000001 -1.0186789 -0.47368223 -0.34465464 -0.17375591 0.20482204 0.29904266 0.31969949 0.5891394 0.78199311
-1.0186789 -0.47368223 -0.34465464 -0.17375591 0.20482204 0.29904266 0.31969949 0.5891394 0.78199311 0.65391305
-0.47368223 -0.34465464 -0.17375591 0.20482204 0.29904266 0.31969949 0.5891394 0.78199311 0.65391305 0.64801647
-0.34465464 -0.17375591 0.20482204 0.29904266 0.31969949 0.5891394 0.78199311 0.65391305 0.64801647 0.81655292
-0.17375591 0.20482204 0.29904266 0.31969949 0.5891394 0.78199311 0.65391305 0.64801647 0.81655292 0.78281835
0.20482204 0.29904266 0.31969949 0.5891394 0.78199311 0.65391305 0.64801647 0.81655292 0.78281835 0.77050817
0.29904266 0.31969949 0.5891394 0.78199311 0.65391305 0.64801647 0.81655292 0.78281835 0.77050817 0.82553256
0.31969949 0.5891394 0.78199311 0.65391305 0.64801647 0.81655292 0.78281835 0.77050817 0.82553256 0.67838148
0.5891394 0.78199311 0.65391305 0.64801647 0.81655292 0.78281835 0.77050817 0.82553256 0.67838148 0.53792373
0.78199311 0.65391305 0.64801647 0.81655292 0.78281835 0.77050817 0.82553256 0.67838148 0.53792373 0.53594711
0.65391305 0.64801647 0.81655292 0.78281835 0.77050817 0.82553256 0.67838148 0.53792373 0.53594711 0.56489515
0.64801647 0.81655292 0.78281835 0.77050817 0.82553256 0.67838148 0.53792373 0.53594711 0.56489515 0.5541468
0.81655292 0.78281835 0.77050817 0.82553256 0.67838148 0.53792373 0.53594711 0.56489515 0.5541468 0.48341517
0.78281835 0.77050817 0.82553256 0.67838148 0.53792373 0.53594711 0.56489515 0.5541468 0.48341517 0.43787624
0.77050817 0.82553256 0.67838148 0.53792373 0.53594711 0.56489515 0.5541468 0.48341517 0.43787624 0.40430356
0.82553256 0.67838148 0.53792373 0.53594711 0.56489515 0.5541468 0.48341517 0.43787624 0.40430356 0.39575539
0.67838148 0.53792373 0.53594711 0.56489515 0.5541468 0.48341517 0.43787624 0.40430356 0.39575539 0.48234983
0.53792373 0.53594711 0.56489515 0.5541468 0.48341517 0.43787624 0.40430356 0.39575539 0.48234983 0.51771464
0.53594711 0.56489515 0.5541468 0.48341517 0.43787624 0.40430356 0.39575539 0.48234983 0.51771464 0.47598645
0.56489515 0.5541468 0.48341517 0.43787624 0.40430356 0.39575539 0.48234983 0.51771464 0.47598645 0.53858068
0.5541468 0.48341517 0.43787624 0.40430356 0.39575539 0.48234983 0.51771464 0.47598645 0.53858068 0.63027485
0.48341517 0.43787624 0.40430356 0.39575539 0.48234983 0.51771464 0.47598645 0.53858068 0.63027485 0.61814456
0.43787624 0.40430356 0.39575539 0.48234983 0.51771464 0.47598645 0.53858068 0.63027485 0.61814456 0.6643433000000001
0.40430356 0.39575539 0.48234983 0.51771464 0.47598645 0.53858068 0.63027485 0.61814456 0.6643433000000001 0.86471428
0.39575539 0.48234983 0.51771464 0.47598645 0.53858068 0.63027485 0.61814456 0.6643433000000001 0.86471428 1.1087905
0.48234983 0.51771464 0.47598645 0.53858068 0.63027485 0.61814456 0.6643433000000001 0.86471428 1.1087905 1.2390306
0.51771464 0.47598645 0.53858068 0.63027485 0.61814456 0.6643433000000001 0.86471428 1.1087905 1.2390306 1.0899691999999999
0.47598645 0.53858068 0.63027485 0.61814456 0.6643433000000001 0.86471428 1.1087905 1.2390306 1.0899691999999999 0.84222734
0.53858068 0.63027485 0.61814456 0.6643433000000001 0.86471428 1.1087905 1.2390306 1.0899691999999999 0.84222734 0.93301907
0.63027485 0.61814456 0.6643433000000001 0.86471428 1.1087905 1.2390306 1.0899691999999999 0.84222734 0.93301907 0.89372385
0.61814456 0.6643433000000001 0.86471428 1.1087905 1.2390306 1.0899691999999999 0.84222734 0.93301907 0.89372385 0.40913431
0.6643433000000001 0.86471428 1.1087905 1.2390306 1.0899691999999999 0.84222734 0.93301907 0.89372385 0.40913431 0.29969234
0.86471428 1.1087905 1.2390306 1.0899691999999999 0.84222734 0.93301907 0.89372385 0.40913431 0.29969234 0.35868333
1.1087905 1.2390306 1.0899691999999999 0.84222734 0.93301907 0.89372385 0.40913431 0.29969234 0.35868333 0.16955164
1.2390306 1.0899691999999999 0.84222734 0.93301907 0.89372385 0.40913431 0.29969234 0.35868333 0.16955164 0.28576098
1.0899691999999999 0.84222734 0.93301907 0.89372385 0.40913431 0.29969234 0.35868333 0.16955164 0.28576098 0.32195206
0.84222734 0.93301907 0.89372385 0.40913431 0.29969234 0.35868333 0.16955164 0.28576098 0.32195206 0.033172873
0.93301907 0.89372385 0.40913431 0.29969234 0.35868333 0.16955164 0.28576098 0.32195206 0.033172873 0.0068894041000000005
0.89372385 0.40913431 0.29969234 0.35868333 0.16955164 0.28576098 0.32195206 0.033172873 0.0068894041000000005 -0.057385843
0.40913431 0.29969234 0.35868333 0.16955164 0.28576098 0.32195206 0.033172873 0.0068894041000000005 -0.057385843 -0.30633237
0.29969234 0.35868333 0.16955164 0.28576098 0.32195206 0.033172873 0.0068894041000000005 -0.057385843 -0.30633237 -0.06741053
0.35868333 0.16955164 0.28576098 0.32195206 0.033172873 0.0068894041000000005 -0.057385843 -0.30633237 -0.06741053 0.22519356
0.16955164 0.28576098 0.32195206 0.033172873 0.0068894041000000005 -0.057385843 -0.30633237 -0.06741053 0.22519356 0.06938688
0.28576098 0.32195206 0.033172873 0.0068894041000000005 -0.057385843 -0.30633237 -0.06741053 0.22519356 0.06938688 0.05897600099999999
0.32195206 0.033172873 0.0068894041000000005 -0.057385843 -0.30633237 -0.06741053 0.22519356 0.06938688 0.05897600099999999 0.20719931
0.033172873 0.0068894041000000005 -0.057385843 -0.30633237 -0.06741053 0.22519356 0.06938688 0.05897600099999999 0.20719931 0.13314702
