0.27482721 0.48103668 0.91926414 1.5386127 2.0466195 2.2471427000000004 1.8813335999999998 1.2234635 0.58100914 -0.013895524
0.48103668 0.91926414 1.5386127 2.0466195 2.2471427000000004 1.8813335999999998 1.2234635 0.58100914 -0.013895524 0.075209638
0.91926414 1.5386127 2.0466195 2.2471427000000004 1.8813335999999998 1.2234635 0.58100914 -0.013895524 0.075209638 0.32472237
1.5386127 2.0466195 2.2471427000000004 1.8813335999999998 1.2234635 0.58100914 -0.013895524 0.075209638 0.32472237 -0.0998377
2.0466195 2.2471427000000004 1.8813335999999998 1.2234635 0.58100914 -0.013895524 0.075209638 0.32472237 -0.0998377 -0.16934754
2.2471427000000004 1.8813335999999998 1.2234635 0.58100914 -0.013895524 0.075209638 0.32472237 -0.0998377 -0.16934754 0.0027368262
1.8813335999999998 1.2234635 0.58100914 -0.013895524 0.075209638 0.32472237 -0.0998377 -0.16934754 0.0027368262 -0.068218734
1.2234635 0.58100914 -0.013895524 0.075209638 0.32472237 -0.0998377 -0.16934754 0.0027368262 -0.068218734 -0.26885261
0.58100914 -0.013895524 0.075209638 0.32472237 -0.0998377 -0.16934754 0.0027368262 -0.068218734 -0.26885261 -0.87451394
-0.013895524 0.075209638 0.32472237 -0.0998377 -0.16934754 0.0027368262 -0.068218734 -0.26885261 -0.87451394 -0.96353972
0.075209638 0.32472237 -0.0998377 -0.16934754 0.0027368262 -0.068218734 -0.26885261 -0.87451394 -0.96353972 -0.63926924
0.32472237 -0.0998377 -0.16934754 0.0027368262 -0.068218734 -0.26885261 -0.87451394 -0.96353972 -0.63926924 -0.97817777
-0.0998377 -0.16934754 0.0027368262 -0.068218734 -0.26885261 -0.87451394 -0.96353972 -0.63926924 -0.97817777 -1.0722797
-0.16934754 0.0027368262 -0.068218734 -0.26885261 -0.87451394 -0.96353972 -0.63926924 -0.97817777 -1.0722797 -0.84334825
0.0027368262 -0.068218734 -0.26885261 -0.87451394 -0.96353972 -0.63926924 -0.97817777 -1.0722797 -0.84334825 -1.1584434
-0.068218734 -0.26885261 -0.87451394 -0.96353972 -0.63926924 -0.97817777 -1.0722797 -0.84334825 -1.1584434 -1.2610084
-0.26885261 -0.87451394 -0.96353972 -0.63926924 -0.97817777 -1.0722797 -0.84334825 -1.1584434 -1.2610084 -1.1861971000000002
-0.87451394 -0.96353972 -0.63926924 -0.97817777 -1.0722797 -0.84334825 -1.1584434 -1.2610084 -1.1861971000000002 -1.4552121999999998
-0.96353972 -0.63926924 -0.97817777 -1.0722797 -0.84334825 -1.1584434 -1.2610084 -1.1861971000000002 -1.4552121999999998 -1.6929553
-0.63926924 -0.97817777 -1.0722797 -0.84334825 -1.1584434 -1.2610084 -1.1861971000000002 -1.4552121999999998 -1.6929553 -1.9015054
-0.97817777 -1.0722797 -0.84334825 -1.1584434 -1.2610084 -1.1861971000000002 -1.4552121999999998 -1.6929553 -1.9015054 -1.681844
-1.0722797 -0.84334825 -1.1584434 -1.2610084 -1.1861971000000002 -1.4552121999999998 -1.6929553 -1.9015054 -1.681844 -1.5709794
-0.84334825 -1.1584434 -1.2610084 -1.1861971000000002 -1.4552121999999998 -1.6929553 -1.9015054 -1.681844 -1.5709794 -2.0163766
-1.1584434 -1.2610084 -1.1861971000000002 -1.4552121999999998 -1.6929553 -1.9015054 -1.681844 -1.5709794 -2.0163766 -2.1418538
-1.2610084 -1.1861971000000002 -1.4552121999999998 -1.6929553 -1.9015054 -1.681844 -1.5709794 -2.0163766 -2.1418538 -2.0269626
-1.1861971000000002 -1.4552121999999998 -1.6929553 -1.9015054 -1.681844 -1.5709794 -2.0163766 -2.1418538 -2.0269626 -1.9896808000000001
-1.4552121999999998 -1.6929553 -1.9015054 -1.681844 -1.5709794 -2.0163766 -2.1418538 -2.0269626 -1.9896808000000001 -1.815479
-1.6929553 -1.9015054 -1.681844 -1.5709794 -2.0163766 -2.1418538 -2.0269626 -1.9896808000000001 -1.815479 -2.0673586
-1.9015054 -1.681844 -1.5709794 -2.0163766 -2.1418538 -2.0269626 -1.9896808000000001 -1.815479 -2.0673586 -2.1749792
-1.681844 -1.5709794 -2.0163766 -2.1418538 -2.0269626 -1.9896808000000001 -1.815479 -2.0673586 -2.1749792 -1.5897112
-1.5709794 -2.0163766 -2.1418538 -2.0269626 -1.9896808000000001 -1.815479 -2.0673586 -2.1749792 -1.5897112 -1.3725735000000001
-2.0163766 -2.1418538 -2.0269626 -1.9896808000000001 -1.815479 -2.0673586 -2.1749792 -1.5897112 -1.3725735000000001 -1.2477559
-2.1418538 -2.0269626 -1.9896808000000001 -1.815479 -2.0673586 -2.1749792 -1.5897112 -1.3725735000000001 -1.2477559 -0.88125119
-2.0269626 -1.9896808000000001 -1.815479 -2.0673586 -2.1749792 -1.5897112 -1.3725735000000001 -1.2477559 -0.88125119 -0.6872476
-1.9896808000000001 -1.815479 -2.0673586 -2.1749792 -1.5897112 -1.3725735000000001 -1.2477559 -0.88125119 -0.6872476 -0.40212389
-1.815479 -2.0673586 -2.1749792 -1.5897112 -1.3725735000000001 -1.2477559 -0.88125119 -0.6872476 -0.40212389 -0.20059631
-2.0673586 -2.1749792 -1.5897112 -1.3725735000000001 -1.2477559 -0.88125119 -0.6872476 -0.40212389 -0.20059631 -0.07159784200000001
-2.1749792 -1.5897112 -1.3725735000000001 -1.2477559 -0.88125119 -0.6872476 -0.40212389 -0.20059631 -0.07159784200000001 0.031612797000000005
-1.5897112 -1.3725735000000001 -1.2477559 -0.88125119 -0.6872476 -0.40212389 -0.20059631 -0.07159784200000001 0.031612797000000005 0.080364427
-1.3725735000000001 -1.2477559 -0.88125119 -0.6872476 -0.40212389 -0.20059631 -0.07159784200000001 0.031612797000000005 0.080364427 0.21287398
-1.2477559 -0.88125119 -0.6872476 -0.40212389 -0.20059631 -0.07159784200000001 0.031612797000000005 0.080364427 0.21287398 0.33540640000000005
-0.88125119 -0.6872476 -0.40212389 -0.20059631 -0.07159784200000001 0.031612797000000005 0.080364427 0.21287398 0.33540640000000005 0.47743425
-0.6872476 -0.40212389 -0.20059631 -0.07159784200000001 0.031612797000000005 0.080364427 0.21287398 0.33540640000000005 0.47743425 0.53826973
-0.40212389 -0.20059631 -0.07159784200000001 0.031612797000000005 0.080364427 0.21287398 0.33540640000000005 0.47743425 0.53826973 0.48987919
-0.20059631 -0.07159784200000001 0.031612797000000005 0.080364427 0.21287398 0.33540640000000005 0.47743425 0.53826973 0.48987919 0.51794475
-0.07159784200000001 0.031612797000000005 0.080364427 0.21287398 0.33540640000000005 0.47743425 0.53826973 0.48987919 0.51794475 0.53220601
0.031612797000000005 0.080364427 0.21287398 0.33540640000000005 0.47743425 0.53826973 0.48987919 0.51794475 0.53220601 0.48414343
0.080364427 0.21287398 0.33540640000000005 0.47743425 0.53826973 0.48987919 0.51794475 0.53220601 0.48414343 0.48955919
0.21287398 0.33540640000000005 0.47743425 0.53826973 0.48987919 0.51794475 0.53220601 0.48414343 0.48955919 0.51085975
0.33540640000000005 0.47743425 0.53826973 0.48987919 0.51794475 0.53220601 0.48414343 0.48955919 0.51085975 0.42388961
0.47743425 0.53826973 0.48987919 0.51794475 0.53220601 0.48414343 0.48955919 0.51085975 0.42388961 0.49546141
0.53826973 0.48987919 0.51794475 0.53220601 0.48414343 0.48955919 0.51085975 0.42388961 0.49546141 0.7047736
0.48987919 0.51794475 0.53220601 0.48414343 0.48955919 0.51085975 0.42388961 0.49546141 0.7047736 0.56084504
0.51794475 0.53220601 0.48414343 0.48955919 0.51085975 0.42388961 0.49546141 0.7047736 0.56084504 0.43955004
0.53220601 0.48414343 0.48955919 0.51085975 0.42388961 0.49546141 0.7047736 0.56084504 0.43955004 0.58182821
0.48414343 0.48955919 0.51085975 0.42388961 0.49546141 0.7047736 0.56084504 0.43955004 0.58182821 0.61366758
0.48955919 0.51085975 0.42388961 0.49546141 0.7047736 0.56084504 0.43955004 0.58182821 0.61366758 0.63757675
0.51085975 0.42388961 0.49546141 0.7047736 0.56084504 0.43955004 0.58182821 0.61366758 0.63757675 0.66634325
0.42388961 0.49546141 0.7047736 0.56084504 0.43955004 0.58182821 0.61366758 0.63757675 0.66634325 0.63429892
0.49546141 0.7047736 0.56084504 0.43955004 0.58182821 0.61366758 0.63757675 0.66634325 0.63429892 0.65031586
0.7047736 0.56084504 0.43955004 0.58182821 0.61366758 0.63757675 0.66634325 0.63429892 0.65031586 0.70749353
0.56084504 0.43955004 0.58182821 0.61366758 0.63757675 0.66634325 0.63429892 0.65031586 0.70749353 0.76192815
0.43955004 0.58182821 0.61366758 0.63757675 0.66634325 0.63429892 0.65031586 0.70749353 0.76192815 0.75524205
0.58182821 0.61366758 0.63757675 0.66634325 0.63429892 0.65031586 0.70749353 0.76192815 0.75524205 0.78469797
0.61366758 0.63757675 0.66634325 0.63429892 0.65031586 0.70749353 0.76192815 0.75524205 0.78469797 0.9191244000000001
0.63757675 0.66634325 0.63429892 0.65031586 0.70749353 0.76192815 0.75524205 0.78469797 0.9191244000000001 0.96093655
0.66634325 0.63429892 0.65031586 0.70749353 0.76192815 0.75524205 0.78469797 0.9191244000000001 0.96093655 0.91454644
0.63429892 0.65031586 0.70749353 0.76192815 0.75524205 0.78469797 0.9191244000000001 0.96093655 0.91454644 0.99706479
0.65031586 0.70749353 0.76192815 0.75524205 0.78469797 0.9191244000000001 0.96093655 0.91454644 0.99706479 1.0213727
0.70749353 0.76192815 0.75524205 0.78469797 0.9191244000000001 0.96093655 0.91454644 0.99706479 1.0213727 0.83071642
0.76192815 0.75524205 0.78469797 0.9191244000000001 0.96093655 0.91454644 0.99706479 1.0213727 0.83071642 0.75422812
0.75524205 0.78469797 0.9191244000000001 0.96093655 0.91454644 0.99706479 1.0213727 0.83071642 0.75422812 0.73992558
0.78469797 0.9191244000000001 0.96093655 0.91454644 0.99706479 1.0213727 0.83071642 0.75422812 0.73992558 0.53291993
0.9191244000000001 0.96093655 0.91454644 0.99706479 1.0213727 0.83071642 0.75422812 0.73992558 0.53291993 0.44239105
0.96093655 0.91454644 0.99706479 1.0213727 0.83071642 0.75422812 0.73992558 0.53291993 0.44239105 0.50658326
0.91454644 0.99706479 1.0213727 0.83071642 0.75422812 0.73992558 0.53291993 0.44239105 0.50658326 0.44782721
0.99706479 1.0213727 0.83071642 0.75422812 0.73992558 0.53291993 0.44239105 0.50658326 0.44782721 0.42828057
1.0213727 0.83071642 0.75422812 0.73992558 0.53291993 0.44239105 0.50658326 0.44782721 0.42828057 0.43737808
0.83071642 0.75422812 0.73992558 0.53291993 0.44239105 0.50658326 0.44782721 0.42828057 0.43737808 0.34221929999999995
0.75422812 0.73992558 0.53291993 0.44239105 0.50658326 0.44782721 0.42828057 0.43737808 0.34221929999999995 0.38030214
0.73992558 0.53291993 0.44239105 0.50658326 0.44782721 0.42828057 0.43737808 0.34221929999999995 0.38030214 0.36825288
0.53291993 0.44239105 0.50658326 0.44782721 0.42828057 0.43737808 0.34221929999999995 0.38030214 0.36825288 0.25368051
0.44239105 0.50658326 0.44782721 0.42828057 0.43737808 0.34221929999999995 0.38030214 0.36825288 0.25368051 0.29288411
0.50658326 0.44782721 0.42828057 0.43737808 0.34221929999999995 0.38030214 0.36825288 0.25368051 0.29288411 0.29816396
0.44782721 0.42828057 0.43737808 0.34221929999999995 0.38030214 0.36825288 0.25368051 0.29288411 0.29816396 0.3171801
0.42828057 0.43737808 0.34221929999999995 0.38030214 0.36825288 0.25368051 0.29288411 0.29816396 0.3171801 0.42303507
0.43737808 0.34221929999999995 0.38030214 0.36825288 0.25368051 0.29288411 0.29816396 0.3171801 0.42303507 0.26151674
