2.2487902 3.5350384 2.8882737 2.7209197 0.86212017 0.3755771 1.6392038 1.2831241000000002 1.1570711 1.1850721000000002
3.5350384 2.8882737 2.7209197 0.86212017 0.3755771 1.6392038 1.2831241000000002 1.1570711 1.1850721000000002 0.59537694
2.8882737 2.7209197 0.86212017 0.3755771 1.6392038 1.2831241000000002 1.1570711 1.1850721000000002 0.59537694 -0.05150871
2.7209197 0.86212017 0.3755771 1.6392038 1.2831241000000002 1.1570711 1.1850721000000002 0.59537694 -0.05150871 -0.43380888
0.86212017 0.3755771 1.6392038 1.2831241000000002 1.1570711 1.1850721000000002 0.59537694 -0.05150871 -0.43380888 -0.37916601
0.3755771 1.6392038 1.2831241000000002 1.1570711 1.1850721000000002 0.59537694 -0.05150871 -0.43380888 -0.37916601 -0.52318316
1.6392038 1.2831241000000002 1.1570711 1.1850721000000002 0.59537694 -0.05150871 -0.43380888 -0.37916601 -0.52318316 -0.71830401
1.2831241000000002 1.1570711 1.1850721000000002 0.59537694 -0.05150871 -0.43380888 -0.37916601 -0.52318316 -0.71830401 -0.71356612
1.1570711 1.1850721000000002 0.59537694 -0.05150871 -0.43380888 -0.37916601 -0.52318316 -0.71830401 -0.71356612 -0.82040631
1.1850721000000002 0.59537694 -0.05150871 -0.43380888 -0.37916601 -0.52318316 -0.71830401 -0.71356612 -0.82040631 -0.85969474
0.59537694 -0.05150871 -0.43380888 -0.37916601 -0.52318316 -0.71830401 -0.71356612 -0.82040631 -0.85969474 -1.0077108
-0.05150871 -0.43380888 -0.37916601 -0.52318316 -0.71830401 -0.71356612 -0.82040631 -0.85969474 -1.0077108 -1.1345551999999999
-0.43380888 -0.37916601 -0.52318316 -0.71830401 -0.71356612 -0.82040631 -0.85969474 -1.0077108 -1.1345551999999999 -1.0714556999999998
-0.37916601 -0.52318316 -0.71830401 -0.71356612 -0.82040631 -0.85969474 -1.0077108 -1.1345551999999999 -1.0714556999999998 -1.1277622999999999
-0.52318316 -0.71830401 -0.71356612 -0.82040631 -0.85969474 -1.0077108 -1.1345551999999999 -1.0714556999999998 -1.1277622999999999 -1.3159615
-0.71830401 -0.71356612 -0.82040631 -0.85969474 -1.0077108 -1.1345551999999999 -1.0714556999999998 -1.1277622999999999 -1.3159615 -1.5013693000000001
-0.71356612 -0.82040631 -0.85969474 -1.0077108 -1.1345551999999999 -1.0714556999999998 -1.1277622999999999 -1.3159615 -1.5013693000000001 -1.5051951000000001
-0.82040631 -0.85969474 -1.0077108 -1.1345551999999999 -1.0714556999999998 -1.1277622999999999 -1.3159615 -1.5013693000000001 -1.5051951000000001 -1.6538586
-0.85969474 -1.0077108 -1.1345551999999999 -1.0714556999999998 -1.1277622999999999 -1.3159615 -1.5013693000000001 -1.5051951000000001 -1.6538586 -1.8809025000000001
-1.0077108 -1.1345551999999999 -1.0714556999999998 -1.1277622999999999 -1.3159615 -1.5013693000000001 -1.5051951000000001 -1.6538586 -1.8809025000000001 -1.8100991000000002
-1.1345551999999999 -1.0714556999999998 -1.1277622999999999 -1.3159615 -1.5013693000000001 -1.5051951000000001 -1.6538586 -1.8809025000000001 -1.8100991000000002 -1.8814254000000001
-1.0714556999999998 -1.1277622999999999 -1.3159615 -1.5013693000000001 -1.5051951000000001 -1.6538586 -1.8809025000000001 -1.8100991000000002 -1.8814254000000001 -1.9864112
-1.1277622999999999 -1.3159615 -1.5013693000000001 -1.5051951000000001 -1.6538586 -1.8809025000000001 -1.8100991000000002 -1.8814254000000001 -1.9864112 -1.9802986
-1.3159615 -1.5013693000000001 -1.5051951000000001 -1.6538586 -1.8809025000000001 -1.8100991000000002 -1.8814254000000001 -1.9864112 -1.9802986 -1.7677252
-1.5013693000000001 -1.5051951000000001 -1.6538586 -1.8809025000000001 -1.8100991000000002 -1.8814254000000001 -1.9864112 -1.9802986 -1.7677252 -1.4316559
-1.5051951000000001 -1.6538586 -1.8809025000000001 -1.8100991000000002 -1.8814254000000001 -1.9864112 -1.9802986 -1.7677252 -1.4316559 -1.2489468000000001
-1.6538586 -1.8809025000000001 -1.8100991000000002 -1.8814254000000001 -1.9864112 -1.9802986 -1.7677252 -1.4316559 -1.2489468000000001 -0.92451407
-1.8809025000000001 -1.8100991000000002 -1.8814254000000001 -1.9864112 -1.9802986 -1.7677252 -1.4316559 -1.2489468000000001 -0.92451407 -0.49763379
-1.8100991000000002 -1.8814254000000001 -1.9864112 -1.9802986 -1.7677252 -1.4316559 -1.2489468000000001 -0.92451407 -0.49763379 -0.15127407
-1.8814254000000001 -1.9864112 -1.9802986 -1.7677252 -1.4316559 -1.2489468000000001 -0.92451407 -0.49763379 -0.15127407 0.19643811
-1.9864112 -1.9802986 -1.7677252 -1.4316559 -1.2489468000000001 -0.92451407 -0.49763379 -0.15127407 0.19643811 0.36145691
-1.9802986 -1.7677252 -1.4316559 -1.2489468000000001 -0.92451407 -0.49763379 -0.15127407 0.19643811 0.36145691 0.52481618
-1.7677252 -1.4316559 -1.2489468000000001 -0.92451407 -0.49763379 -0.15127407 0.19643811 0.36145691 0.52481618 0.78185211
-1.4316559 -1.2489468000000001 -0.92451407 -0.49763379 -0.15127407 0.19643811 0.36145691 0.52481618 0.78185211 0.85574991
-1.2489468000000001 -0.92451407 -0.49763379 -0.15127407 0.19643811 0.36145691 0.52481618 0.78185211 0.85574991 0.86800457
-0.92451407 -0.49763379 -0.15127407 0.19643811 0.36145691 0.52481618 0.78185211 0.85574991 0.86800457 0.82624508
-0.49763379 -0.15127407 0.19643811 0.36145691 0.52481618 0.78185211 0.85574991 0.86800457 0.82624508 0.78078015
-0.15127407 0.19643811 0.36145691 0.52481618 0.78185211 0.85574991 0.86800457 0.82624508 0.78078015 0.72518763
0.19643811 0.36145691 0.52481618 0.78185211 0.85574991 0.86800457 0.82624508 0.78078015 0.72518763 0.65159462
0.36145691 0.52481618 0.78185211 0.85574991 0.86800457 0.82624508 0.78078015 0.72518763 0.65159462 0.65550067
0.52481618 0.78185211 0.85574991 0.86800457 0.82624508 0.78078015 0.72518763 0.65159462 0.65550067 0.52495374
0.78185211 0.85574991 0.86800457 0.82624508 0.78078015 0.72518763 0.65159462 0.65550067 0.52495374 0.56875127
0.85574991 0.86800457 0.82624508 0.78078015 0.72518763 0.65159462 0.65550067 0.52495374 0.56875127 0.72005592
0.86800457 0.82624508 0.78078015 0.72518763 0.65159462 0.65550067 0.52495374 0.56875127 0.72005592 0.5729603
0.82624508 0.78078015 0.72518763 0.65159462 0.65550067 0.52495374 0.56875127 0.72005592 0.5729603 0.50084141
0.78078015 0.72518763 0.65159462 0.65550067 0.52495374 0.56875127 0.72005592 0.5729603 0.50084141 0.49535629
0.72518763 0.65159462 0.65550067 0.52495374 0.56875127 0.72005592 0.5729603 0.50084141 0.49535629 0.51489919
0.65159462 0.65550067 0.52495374 0.56875127 0.72005592 0.5729603 0.50084141 0.49535629 0.51489919 0.5163807
0.65550067 0.52495374 0.56875127 0.72005592 0.5729603 0.50084141 0.49535629 0.51489919 0.5163807 0.40598206
0.52495374 0.56875127 0.72005592 0.5729603 0.50084141 0.49535629 0.51489919 0.5163807 0.40598206 0.42214327
0.56875127 0.72005592 0.5729603 0.50084141 0.49535629 0.51489919 0.5163807 0.40598206 0.42214327 0.41079177
0.72005592 0.5729603 0.50084141 0.49535629 0.51489919 0.5163807 0.40598206 0.42214327 0.41079177 0.31947159999999997
0.5729603 0.50084141 0.49535629 0.51489919 0.5163807 0.40598206 0.42214327 0.41079177 0.31947159999999997 0.31647894
0.50084141 0.49535629 0.51489919 0.5163807 0.40598206 0.42214327 0.41079177 0.31947159999999997 0.31647894 0.30740853
0.49535629 0.51489919 0.5163807 0.40598206 0.42214327 0.41079177 0.31947159999999997 0.31647894 0.30740853 0.25230219
0.51489919 0.5163807 0.40598206 0.42214327 0.41079177 0.31947159999999997 0.31647894 0.30740853 0.25230219 0.098817208
0.5163807 0.40598206 0.42214327 0.41079177 0.31947159999999997 0.31647894 0.30740853 0.25230219 0.098817208 0.058965974000000004
0.40598206 0.42214327 0.41079177 0.31947159999999997 0.31647894 0.30740853 0.25230219 0.098817208 0.058965974000000004 0.14112748
0.42214327 0.41079177 0.31947159999999997 0.31647894 0.30740853 0.25230219 0.098817208 0.058965974000000004 0.14112748 0.07443868099999999
0.41079177 0.31947159999999997 0.31647894 0.30740853 0.25230219 0.098817208 0.058965974000000004 0.14112748 0.07443868099999999 0.010571305
0.31947159999999997 0.31647894 0.30740853 0.25230219 0.098817208 0.058965974000000004 0.14112748 0.07443868099999999 0.010571305 0.018008545
0.31647894 0.30740853 0.25230219 0.098817208 0.058965974000000004 0.14112748 0.07443868099999999 0.010571305 0.018008545 0.06032822
0.30740853 0.25230219 0.098817208 0.058965974000000004 0.14112748 0.07443868099999999 0.010571305 0.018008545 0.06032822 -0.005283538199999999
0.25230219 0.098817208 0.058965974000000004 0.14112748 0.07443868099999999 0.010571305 0.018008545 0.06032822 -0.005283538199999999 -0.039992762
0.098817208 0.058965974000000004 0.14112748 0.07443868099999999 0.010571305 0.018008545 0.06032822 -0.005283538199999999 -0.039992762 0.085052042
0.058965974000000004 0.14112748 0.07443868099999999 0.010571305 0.018008545 0.06032822 -0.005283538199999999 -0.039992762 0.085052042 0.23214528
0.14112748 0.07443868099999999 0.010571305 0.018008545 0.06032822 -0.005283538199999999 -0.039992762 0.085052042 0.23214528 0.38484877
0.07443868099999999 0.010571305 0.018008545 0.06032822 -0.005283538199999999 -0.039992762 0.085052042 0.23214528 0.38484877 0.40289912
0.010571305 0.018008545 0.06032822 -0.005283538199999999 -0.039992762 0.085052042 0.23214528 0.38484877 0.40289912 0.39355616
0.018008545 0.06032822 -0.005283538199999999 -0.039992762 0.085052042 0.23214528 0.38484877 0.40289912 0.39355616 0.24032629
0.06032822 -0.005283538199999999 -0.039992762 0.085052042 0.23214528 0.38484877 0.40289912 0.39355616 0.24032629 0.053103837
-0.005283538199999999 -0.039992762 0.085052042 0.23214528 0.38484877 0.40289912 0.39355616 0.24032629 0.053103837 -0.015459353
-0.039992762 0.085052042 0.23214528 0.38484877 0.40289912 0.39355616 0.24032629 0.053103837 -0.015459353 -0.19510253
0.085052042 0.23214528 0.38484877 0.40289912 0.39355616 0.24032629 0.053103837 -0.015459353 -0.19510253 -0.19249284
0.23214528 0.38484877 0.40289912 0.39355616 0.24032629 0.053103837 -0.015459353 -0.19510253 -0.19249284 -0.34953564
0.38484877 0.40289912 0.39355616 0.24032629 0.053103837 -0.015459353 -0.19510253 -0.19249284 -0.34953564 -0.43444403
0.40289912 0.39355616 0.24032629 0.053103837 -0.015459353 -0.19510253 -0.19249284 -0.34953564 -0.43444403 -0.23053023
0.39355616 0.24032629 0.053103837 -0.015459353 -0.19510253 -0.19249284 -0.34953564 -0.43444403 -0.23053023 -0.27959324
0.24032629 0.053103837 -0.015459353 -0.19510253 -0.19249284 -0.34953564 -0.43444403 -0.23053023 -0.27959324 -0.39912965
0.053103837 -0.015459353 -0.19510253 -0.19249284 -0.34953564 -0.43444403 -0.23053023 -0.27959324 -0.39912965 -0.35639212
-0.015459353 -0.19510253 -0.19249284 -0.34953564 -0.43444403 -0.23053023 -0.27959324 -0.39912965 -0.35639212 -0.25185433
-0.19510253 -0.19249284 -0.34953564 -0.43444403 -0.23053023 -0.27959324 -0.39912965 -0.35639212 -0.25185433 -0.31717097
-0.19249284 -0.34953564 -0.43444403 -0.23053023 -0.27959324 -0.39912965 -0.35639212 -0.25185433 -0.31717097 -0.35169056
-0.34953564 -0.43444403 -0.23053023 -0.27959324 -0.39912965 -0.35639212 -0.25185433 -0.31717097 -0.35169056 -0.25222444
-0.43444403 -0.23053023 -0.27959324 -0.39912965 -0.35639212 -0.25185433 -0.31717097 -0.35169056 -0.25222444 -0.2754384
-0.23053023 -0.27959324 -0.39912965 -0.35639212 -0.25185433 -0.31717097 -0.35169056 -0.25222444 -0.2754384 -0.29134662
-0.27959324 -0.39912965 -0.35639212 -0.25185433 -0.31717097 -0.35169056 -0.25222444 -0.2754384 -0.29134662 -0.20508485
