0.31930911 2.0916954 3.4437762999999997 2.2330166 2.3024139 0.62160769 -0.88666448 0.24808104 0.49880185 -0.098005224
2.0916954 3.4437762999999997 2.2330166 2.3024139 0.62160769 -0.88666448 0.24808104 0.49880185 -0.098005224 -0.030765777
3.4437762999999997 2.2330166 2.3024139 0.62160769 -0.88666448 0.24808104 0.49880185 -0.098005224 -0.030765777 0.34472022
2.2330166 2.3024139 0.62160769 -0.88666448 0.24808104 0.49880185 -0.098005224 -0.030765777 0.34472022 -0.38987174
2.3024139 0.62160769 -0.88666448 0.24808104 0.49880185 -0.098005224 -0.030765777 0.34472022 -0.38987174 -0.62012368
0.62160769 -0.88666448 0.24808104 0.49880185 -0.098005224 -0.030765777 0.34472022 -0.38987174 -0.62012368 -1.0453047
-0.88666448 0.24808104 0.49880185 -0.098005224 -0.030765777 0.34472022 -0.38987174 -0.62012368 -1.0453047 -1.0410438
0.24808104 0.49880185 -0.098005224 -0.030765777 0.34472022 -0.38987174 -0.62012368 -1.0453047 -1.0410438 -0.61869683
0.49880185 -0.098005224 -0.030765777 0.34472022 -0.38987174 -0.62012368 -1.0453047 -1.0410438 -0.61869683 -1.1784057
-0.098005224 -0.030765777 0.34472022 -0.38987174 -0.62012368 -1.0453047 -1.0410438 -0.61869683 -1.1784057 -1.1975206
-0.030765777 0.34472022 -0.38987174 -0.62012368 -1.0453047 -1.0410438 -0.61869683 -1.1784057 -1.1975206 -1.0880618999999998
0.34472022 -0.38987174 -0.62012368 -1.0453047 -1.0410438 -0.61869683 -1.1784057 -1.1975206 -1.0880618999999998 -1.3816531
-0.38987174 -0.62012368 -1.0453047 -1.0410438 -0.61869683 -1.1784057 -1.1975206 -1.0880618999999998 -1.3816531 -1.2971845
-0.62012368 -1.0453047 -1.0410438 -0.61869683 -1.1784057 -1.1975206 -1.0880618999999998 -1.3816531 -1.2971845 -1.3249303
-1.0453047 -1.0410438 -0.61869683 -1.1784057 -1.1975206 -1.0880618999999998 -1.3816531 -1.2971845 -1.3249303 -1.501298
-1.0410438 -0.61869683 -1.1784057 -1.1975206 -1.0880618999999998 -1.3816531 -1.2971845 -1.3249303 -1.501298 -1.6616468
-0.61869683 -1.1784057 -1.1975206 -1.0880618999999998 -1.3816531 -1.2971845 -1.3249303 -1.501298 -1.6616468 -1.8333883999999998
-1.1784057 -1.1975206 -1.0880618999999998 -1.3816531 -1.2971845 -1.3249303 -1.501298 -1.6616468 -1.8333883999999998 -1.8141706000000002
-1.1975206 -1.0880618999999998 -1.3816531 -1.2971845 -1.3249303 -1.501298 -1.6616468 -1.8333883999999998 -1.8141706000000002 -1.6741168999999998
-1.0880618999999998 -1.3816531 -1.2971845 -1.3249303 -1.501298 -1.6616468 -1.8333883999999998 -1.8141706000000002 -1.6741168999999998 -1.8588046999999999
-1.3816531 -1.2971845 -1.3249303 -1.501298 -1.6616468 -1.8333883999999998 -1.8141706000000002 -1.6741168999999998 -1.8588046999999999 -1.9986341
-1.2971845 -1.3249303 -1.501298 -1.6616468 -1.8333883999999998 -1.8141706000000002 -1.6741168999999998 -1.8588046999999999 -1.9986341 -2.0455699000000003
-1.3249303 -1.501298 -1.6616468 -1.8333883999999998 -1.8141706000000002 -1.6741168999999998 -1.8588046999999999 -1.9986341 -2.0455699000000003 -1.8967705000000001
-1.501298 -1.6616468 -1.8333883999999998 -1.8141706000000002 -1.6741168999999998 -1.8588046999999999 -1.9986341 -2.0455699000000003 -1.8967705000000001 -1.6343955
-1.6616468 -1.8333883999999998 -1.8141706000000002 -1.6741168999999998 -1.8588046999999999 -1.9986341 -2.0455699000000003 -1.8967705000000001 -1.6343955 -1.3429893
-1.8333883999999998 -1.8141706000000002 -1.6741168999999998 -1.8588046999999999 -1.9986341 -2.0455699000000003 -1.8967705000000001 -1.6343955 -1.3429893 -1.1656693999999999
-1.8141706000000002 -1.6741168999999998 -1.8588046999999999 -1.9986341 -2.0455699000000003 -1.8967705000000001 -1.6343955 -1.3429893 -1.1656693999999999 -0.90722241
-1.6741168999999998 -1.8588046999999999 -1.9986341 -2.0455699000000003 -1.8967705000000001 -1.6343955 -1.3429893 -1.1656693999999999 -0.90722241 -0.5020325
-1.8588046999999999 -1.9986341 -2.0455699000000003 -1.8967705000000001 -1.6343955 -1.3429893 -1.1656693999999999 -0.90722241 -0.5020325 -0.14391110000000001
-1.9986341 -2.0455699000000003 -1.8967705000000001 -1.6343955 -1.3429893 -1.1656693999999999 -0.90722241 -0.5020325 -0.14391110000000001 0.20306092
-2.0455699000000003 -1.8967705000000001 -1.6343955 -1.3429893 -1.1656693999999999 -0.90722241 -0.5020325 -0.14391110000000001 0.20306092 0.6738644
-1.8967705000000001 -1.6343955 -1.3429893 -1.1656693999999999 -0.90722241 -0.5020325 -0.14391110000000001 0.20306092 0.6738644 0.70463673
-1.6343955 -1.3429893 -1.1656693999999999 -0.90722241 -0.5020325 -0.14391110000000001 0.20306092 0.6738644 0.70463673 0.63686847
-1.3429893 -1.1656693999999999 -0.90722241 -0.5020325 -0.14391110000000001 0.20306092 0.6738644 0.70463673 0.63686847 1.1166565
-1.1656693999999999 -0.90722241 -0.5020325 -0.14391110000000001 0.20306092 0.6738644 0.70463673 0.63686847 1.1166565 0.66957454
-0.90722241 -0.5020325 -0.14391110000000001 0.20306092 0.6738644 0.70463673 0.63686847 1.1166565 0.66957454 1.1391991000000001
-0.5020325 -0.14391110000000001 0.20306092 0.6738644 0.70463673 0.63686847 1.1166565 0.66957454 1.1391991000000001 1.2432912
-0.14391110000000001 0.20306092 0.6738644 0.70463673 0.63686847 1.1166565 0.66957454 1.1391991000000001 1.2432912 0.77798058
0.20306092 0.6738644 0.70463673 0.63686847 1.1166565 0.66957454 1.1391991000000001 1.2432912 0.77798058 0.93665667
0.6738644 0.70463673 0.63686847 1.1166565 0.66957454 1.1391991000000001 1.2432912 0.77798058 0.93665667 0.70713413
0.70463673 0.63686847 1.1166565 0.66957454 1.1391991000000001 1.2432912 0.77798058 0.93665667 0.70713413 0.88868946
0.63686847 1.1166565 0.66957454 1.1391991000000001 1.2432912 0.77798058 0.93665667 0.70713413 0.88868946 0.9200950999999999
1.1166565 0.66957454 1.1391991000000001 1.2432912 0.77798058 0.93665667 0.70713413 0.88868946 0.9200950999999999 0.74580973
0.66957454 1.1391991000000001 1.2432912 0.77798058 0.93665667 0.70713413 0.88868946 0.9200950999999999 0.74580973 0.65805635
1.1391991000000001 1.2432912 0.77798058 0.93665667 0.70713413 0.88868946 0.9200950999999999 0.74580973 0.65805635 0.4053932
1.2432912 0.77798058 0.93665667 0.70713413 0.88868946 0.9200950999999999 0.74580973 0.65805635 0.4053932 0.82966271
0.77798058 0.93665667 0.70713413 0.88868946 0.9200950999999999 0.74580973 0.65805635 0.4053932 0.82966271 0.74840541
0.93665667 0.70713413 0.88868946 0.9200950999999999 0.74580973 0.65805635 0.4053932 0.82966271 0.74840541 0.5809532
0.70713413 0.88868946 0.9200950999999999 0.74580973 0.65805635 0.4053932 0.82966271 0.74840541 0.5809532 0.62708381
0.88868946 0.9200950999999999 0.74580973 0.65805635 0.4053932 0.82966271 0.74840541 0.5809532 0.62708381 0.48055791
0.9200950999999999 0.74580973 0.65805635 0.4053932 0.82966271 0.74840541 0.5809532 0.62708381 0.48055791 0.56559193
0.74580973 0.65805635 0.4053932 0.82966271 0.74840541 0.5809532 0.62708381 0.48055791 0.56559193 0.6678784000000001
0.65805635 0.4053932 0.82966271 0.74840541 0.5809532 0.62708381 0.48055791 0.56559193 0.6678784000000001 0.56885552
0.4053932 0.82966271 0.74840541 0.5809532 0.62708381 0.48055791 0.56559193 0.6678784000000001 0.56885552 0.45093787
0.82966271 0.74840541 0.5809532 0.62708381 0.48055791 0.56559193 0.6678784000000001 0.56885552 0.45093787 0.45857950000000003
0.74840541 0.5809532 0.62708381 0.48055791 0.56559193 0.6678784000000001 0.56885552 0.45093787 0.45857950000000003 0.38092638
0.5809532 0.62708381 0.48055791 0.56559193 0.6678784000000001 0.56885552 0.45093787 0.45857950000000003 0.38092638 0.34950893
0.62708381 0.48055791 0.56559193 0.6678784000000001 0.56885552 0.45093787 0.45857950000000003 0.38092638 0.34950893 0.39879126
0.48055791 0.56559193 0.6678784000000001 0.56885552 0.45093787 0.45857950000000003 0.38092638 0.34950893 0.39879126 0.22800942
0.56559193 0.6678784000000001 0.56885552 0.45093787 0.45857950000000003 0.38092638 0.34950893 0.39879126 0.22800942 0.14285328
0.6678784000000001 0.56885552 0.45093787 0.45857950000000003 0.38092638 0.34950893 0.39879126 0.22800942 0.14285328 0.10983773
0.56885552 0.45093787 0.45857950000000003 0.38092638 0.34950893 0.39879126 0.22800942 0.14285328 0.10983773 0.20422445
0.45093787 0.45857950000000003 0.38092638 0.34950893 0.39879126 0.22800942 0.14285328 0.10983773 0.20422445 0.10185956
0.45857950000000003 0.38092638 0.34950893 0.39879126 0.22800942 0.14285328 0.10983773 0.20422445 0.10185956 0.27016878
0.38092638 0.34950893 0.39879126 0.22800942 0.14285328 0.10983773 0.20422445 0.10185956 0.27016878 0.45458897
0.34950893 0.39879126 0.22800942 0.14285328 0.10983773 0.20422445 0.10185956 0.27016878 0.45458897 0.68958872
0.39879126 0.22800942 0.14285328 0.10983773 0.20422445 0.10185956 0.27016878 0.45458897 0.68958872 0.92953394
0.22800942 0.14285328 0.10983773 0.20422445 0.10185956 0.27016878 0.45458897 0.68958872 0.92953394 0.50570993
0.14285328 0.10983773 0.20422445 0.10185956 0.27016878 0.45458897 0.68958872 0.92953394 0.50570993 0.36376327
0.10983773 0.20422445 0.10185956 0.27016878 0.45458897 0.68958872 0.92953394 0.50570993 0.36376327 0.44699331
0.20422445 0.10185956 0.27016878 0.45458897 0.68958872 0.92953394 0.50570993 0.36376327 0.44699331 0.29017508
0.10185956 0.27016878 0.45458897 0.68958872 0.92953394 0.50570993 0.36376327 0.44699331 0.29017508 0.040298406
0.27016878 0.45458897 0.68958872 0.92953394 0.50570993 0.36376327 0.44699331 0.29017508 0.040298406 -0.20253657
0.45458897 0.68958872 0.92953394 0.50570993 0.36376327 0.44699331 0.29017508 0.040298406 -0.20253657 -0.083446265
0.68958872 0.92953394 0.50570993 0.36376327 0.44699331 0.29017508 0.040298406 -0.20253657 -0.083446265 -0.15863462
0.92953394 0.50570993 0.36376327 0.44699331 0.29017508 0.040298406 -0.20253657 -0.083446265 -0.15863462 -0.042542894000000005
0.50570993 0.36376327 0.44699331 0.29017508 0.040298406 -0.20253657 -0.083446265 -0.15863462 -0.042542894000000005 -0.19342755
0.36376327 0.44699331 0.29017508 0.040298406 -0.20253657 -0.083446265 -0.15863462 -0.042542894000000005 -0.19342755 -0.16064206
0.44699331 0.29017508 0.040298406 -0.20253657 -0.083446265 -0.15863462 -0.042542894000000005 -0.19342755 -0.16064206 -0.20791505
0.29017508 0.040298406 -0.20253657 -0.083446265 -0.15863462 -0.042542894000000005 -0.19342755 -0.16064206 -0.20791505 -0.16577684
0.040298406 -0.20253657 -0.083446265 -0.15863462 -0.042542894000000005 -0.19342755 -0.16064206 -0.20791505 -0.16577684 -0.18602181
-0.20253657 -0.083446265 -0.15863462 -0.042542894000000005 -0.19342755 -0.16064206 -0.20791505 -0.16577684 -0.18602181 -0.18400319
-0.083446265 -0.15863462 -0.042542894000000005 -0.19342755 -0.16064206 -0.20791505 -0.16577684 -0.18602181 -0.18400319 -0.02605305
-0.15863462 -0.042542894000000005 -0.19342755 -0.16064206 -0.20791505 -0.16577684 -0.18602181 -0.18400319 -0.02605305 -0.27751489
-0.042542894000000005 -0.19342755 -0.16064206 -0.20791505 -0.16577684 -0.18602181 -0.18400319 -0.02605305 -0.27751489 -0.12845581
-0.19342755 -0.16064206 -0.20791505 -0.16577684 -0.18602181 -0.18400319 -0.02605305 -0.27751489 -0.12845581 -0.042731837
-0.16064206 -0.20791505 -0.16577684 -0.18602181 -0.18400319 -0.02605305 -0.27751489 -0.12845581 -0.042731837 -0.17717182
