0.6303956999999999 2.1919772999999996 3.5209004 2.7300388 2.1389401 0.56072695 -0.67853152 0.73745468 1.1284541000000001 0.61621496
2.1919772999999996 3.5209004 2.7300388 2.1389401 0.56072695 -0.67853152 0.73745468 1.1284541000000001 0.61621496 0.95796663
3.5209004 2.7300388 2.1389401 0.56072695 -0.67853152 0.73745468 1.1284541000000001 0.61621496 0.95796663 0.84746895
2.7300388 2.1389401 0.56072695 -0.67853152 0.73745468 1.1284541000000001 0.61621496 0.95796663 0.84746895 -0.0042978538
2.1389401 0.56072695 -0.67853152 0.73745468 1.1284541000000001 0.61621496 0.95796663 0.84746895 -0.0042978538 -0.49077663
0.56072695 -0.67853152 0.73745468 1.1284541000000001 0.61621496 0.95796663 0.84746895 -0.0042978538 -0.49077663 -0.53657841
-0.67853152 0.73745468 1.1284541000000001 0.61621496 0.95796663 0.84746895 -0.0042978538 -0.49077663 -0.53657841 -0.75626983
0.73745468 1.1284541000000001 0.61621496 0.95796663 0.84746895 -0.0042978538 -0.49077663 -0.53657841 -0.75626983 -0.8623726999999999
1.1284541000000001 0.61621496 0.95796663 0.84746895 -0.0042978538 -0.49077663 -0.53657841 -0.75626983 -0.8623726999999999 -0.92217942
0.61621496 0.95796663 0.84746895 -0.0042978538 -0.49077663 -0.53657841 -0.75626983 -0.8623726999999999 -0.92217942 -0.91724381
0.95796663 0.84746895 -0.0042978538 -0.49077663 -0.53657841 -0.75626983 -0.8623726999999999 -0.92217942 -0.91724381 -1.0339617
0.84746895 -0.0042978538 -0.49077663 -0.53657841 -0.75626983 -0.8623726999999999 -0.92217942 -0.91724381 -1.0339617 -1.0888733999999998
-0.0042978538 -0.49077663 -0.53657841 -0.75626983 -0.8623726999999999 -0.92217942 -0.91724381 -1.0339617 -1.0888733999999998 -1.1075535
-0.49077663 -0.53657841 -0.75626983 -0.8623726999999999 -0.92217942 -0.91724381 -1.0339617 -1.0888733999999998 -1.1075535 -1.1772523000000001
-0.53657841 -0.75626983 -0.8623726999999999 -0.92217942 -0.91724381 -1.0339617 -1.0888733999999998 -1.1075535 -1.1772523000000001 -1.3366448999999998
-0.75626983 -0.8623726999999999 -0.92217942 -0.91724381 -1.0339617 -1.0888733999999998 -1.1075535 -1.1772523000000001 -1.3366448999999998 -1.5629357
-0.8623726999999999 -0.92217942 -0.91724381 -1.0339617 -1.0888733999999998 -1.1075535 -1.1772523000000001 -1.3366448999999998 -1.5629357 -1.4416866000000002
-0.92217942 -0.91724381 -1.0339617 -1.0888733999999998 -1.1075535 -1.1772523000000001 -1.3366448999999998 -1.5629357 -1.4416866000000002 -1.5250046999999998
-0.91724381 -1.0339617 -1.0888733999999998 -1.1075535 -1.1772523000000001 -1.3366448999999998 -1.5629357 -1.4416866000000002 -1.5250046999999998 -1.8071270000000001
-1.0339617 -1.0888733999999998 -1.1075535 -1.1772523000000001 -1.3366448999999998 -1.5629357 -1.4416866000000002 -1.5250046999999998 -1.8071270000000001 -1.9284675
-1.0888733999999998 -1.1075535 -1.1772523000000001 -1.3366448999999998 -1.5629357 -1.4416866000000002 -1.5250046999999998 -1.8071270000000001 -1.9284675 -1.9496758
-1.1075535 -1.1772523000000001 -1.3366448999999998 -1.5629357 -1.4416866000000002 -1.5250046999999998 -1.8071270000000001 -1.9284675 -1.9496758 -1.819808
-1.1772523000000001 -1.3366448999999998 -1.5629357 -1.4416866000000002 -1.5250046999999998 -1.8071270000000001 -1.9284675 -1.9496758 -1.819808 -1.7579563000000002
-1.3366448999999998 -1.5629357 -1.4416866000000002 -1.5250046999999998 -1.8071270000000001 -1.9284675 -1.9496758 -1.819808 -1.7579563000000002 -1.7316726999999998
-1.5629357 -1.4416866000000002 -1.5250046999999998 -1.8071270000000001 -1.9284675 -1.9496758 -1.819808 -1.7579563000000002 -1.7316726999999998 -1.6748759999999998
-1.4416866000000002 -1.5250046999999998 -1.8071270000000001 -1.9284675 -1.9496758 -1.819808 -1.7579563000000002 -1.7316726999999998 -1.6748759999999998 -1.3019642
-1.5250046999999998 -1.8071270000000001 -1.9284675 -1.9496758 -1.819808 -1.7579563000000002 -1.7316726999999998 -1.6748759999999998 -1.3019642 -1.0401643
-1.8071270000000001 -1.9284675 -1.9496758 -1.819808 -1.7579563000000002 -1.7316726999999998 -1.6748759999999998 -1.3019642 -1.0401643 -0.7638732
-1.9284675 -1.9496758 -1.819808 -1.7579563000000002 -1.7316726999999998 -1.6748759999999998 -1.3019642 -1.0401643 -0.7638732 -0.34104548
-1.9496758 -1.819808 -1.7579563000000002 -1.7316726999999998 -1.6748759999999998 -1.3019642 -1.0401643 -0.7638732 -0.34104548 -0.16280014
-1.819808 -1.7579563000000002 -1.7316726999999998 -1.6748759999999998 -1.3019642 -1.0401643 -0.7638732 -0.34104548 -0.16280014 0.24012595
-1.7579563000000002 -1.7316726999999998 -1.6748759999999998 -1.3019642 -1.0401643 -0.7638732 -0.34104548 -0.16280014 0.24012595 0.31242077
-1.7316726999999998 -1.6748759999999998 -1.3019642 -1.0401643 -0.7638732 -0.34104548 -0.16280014 0.24012595 0.31242077 0.53646954
-1.6748759999999998 -1.3019642 -1.0401643 -0.7638732 -0.34104548 -0.16280014 0.24012595 0.31242077 0.53646954 1.0895203000000002
-1.3019642 -1.0401643 -0.7638732 -0.34104548 -0.16280014 0.24012595 0.31242077 0.53646954 1.0895203000000002 0.83278792
-1.0401643 -0.7638732 -0.34104548 -0.16280014 0.24012595 0.31242077 0.53646954 1.0895203000000002 0.83278792 0.81900637
-0.7638732 -0.34104548 -0.16280014 0.24012595 0.31242077 0.53646954 1.0895203000000002 0.83278792 0.81900637 0.90212204
-0.34104548 -0.16280014 0.24012595 0.31242077 0.53646954 1.0895203000000002 0.83278792 0.81900637 0.90212204 0.79193508
-0.16280014 0.24012595 0.31242077 0.53646954 1.0895203000000002 0.83278792 0.81900637 0.90212204 0.79193508 0.88963177
0.24012595 0.31242077 0.53646954 1.0895203000000002 0.83278792 0.81900637 0.90212204 0.79193508 0.88963177 0.77246854
0.31242077 0.53646954 1.0895203000000002 0.83278792 0.81900637 0.90212204 0.79193508 0.88963177 0.77246854 0.7469912
0.53646954 1.0895203000000002 0.83278792 0.81900637 0.90212204 0.79193508 0.88963177 0.77246854 0.7469912 0.66540339
1.0895203000000002 0.83278792 0.81900637 0.90212204 0.79193508 0.88963177 0.77246854 0.7469912 0.66540339 0.52013208
0.83278792 0.81900637 0.90212204 0.79193508 0.88963177 0.77246854 0.7469912 0.66540339 0.52013208 0.7012037
0.81900637 0.90212204 0.79193508 0.88963177 0.77246854 0.7469912 0.66540339 0.52013208 0.7012037 0.82642646
0.90212204 0.79193508 0.88963177 0.77246854 0.7469912 0.66540339 0.52013208 0.7012037 0.82642646 0.66509135
0.79193508 0.88963177 0.77246854 0.7469912 0.66540339 0.52013208 0.7012037 0.82642646 0.66509135 0.42308822
0.88963177 0.77246854 0.7469912 0.66540339 0.52013208 0.7012037 0.82642646 0.66509135 0.42308822 0.68346718
0.77246854 0.7469912 0.66540339 0.52013208 0.7012037 0.82642646 0.66509135 0.42308822 0.68346718 0.7785761999999999
0.7469912 0.66540339 0.52013208 0.7012037 0.82642646 0.66509135 0.42308822 0.68346718 0.7785761999999999 0.36476564
0.66540339 0.52013208 0.7012037 0.82642646 0.66509135 0.42308822 0.68346718 0.7785761999999999 0.36476564 0.65740999
0.52013208 0.7012037 0.82642646 0.66509135 0.42308822 0.68346718 0.7785761999999999 0.36476564 0.65740999 0.90881109
0.7012037 0.82642646 0.66509135 0.42308822 0.68346718 0.7785761999999999 0.36476564 0.65740999 0.90881109 0.72742986
0.82642646 0.66509135 0.42308822 0.68346718 0.7785761999999999 0.36476564 0.65740999 0.90881109 0.72742986 0.4116391
0.66509135 0.42308822 0.68346718 0.7785761999999999 0.36476564 0.65740999 0.90881109 0.72742986 0.4116391 0.24151131
0.42308822 0.68346718 0.7785761999999999 0.36476564 0.65740999 0.90881109 0.72742986 0.4116391 0.24151131 0.41591219
0.68346718 0.7785761999999999 0.36476564 0.65740999 0.90881109 0.72742986 0.4116391 0.24151131 0.41591219 0.32387831
0.7785761999999999 0.36476564 0.65740999 0.90881109 0.72742986 0.4116391 0.24151131 0.41591219 0.32387831 0.27553765
0.36476564 0.65740999 0.90881109 0.72742986 0.4116391 0.24151131 0.41591219 0.32387831 0.27553765 0.20409279
0.65740999 0.90881109 0.72742986 0.4116391 0.24151131 0.41591219 0.32387831 0.27553765 0.20409279 0.22254801
0.90881109 0.72742986 0.4116391 0.24151131 0.41591219 0.32387831 0.27553765 0.20409279 0.22254801 0.31690479
0.72742986 0.4116391 0.24151131 0.41591219 0.32387831 0.27553765 0.20409279 0.22254801 0.31690479 0.08449712599999999
0.4116391 0.24151131 0.41591219 0.32387831 0.27553765 0.20409279 0.22254801 0.31690479 0.08449712599999999 0.35334228
0.24151131 0.41591219 0.32387831 0.27553765 0.20409279 0.22254801 0.31690479 0.08449712599999999 0.35334228 0.37652863
0.41591219 0.32387831 0.27553765 0.20409279 0.22254801 0.31690479 0.08449712599999999 0.35334228 0.37652863 0.65982328
0.32387831 0.27553765 0.20409279 0.22254801 0.31690479 0.08449712599999999 0.35334228 0.37652863 0.65982328 0.81620248
0.27553765 0.20409279 0.22254801 0.31690479 0.08449712599999999 0.35334228 0.37652863 0.65982328 0.81620248 0.68012713
0.20409279 0.22254801 0.31690479 0.08449712599999999 0.35334228 0.37652863 0.65982328 0.81620248 0.68012713 0.31022602
0.22254801 0.31690479 0.08449712599999999 0.35334228 0.37652863 0.65982328 0.81620248 0.68012713 0.31022602 -0.20623397
0.31690479 0.08449712599999999 0.35334228 0.37652863 0.65982328 0.81620248 0.68012713 0.31022602 -0.20623397 0.030208269
0.08449712599999999 0.35334228 0.37652863 0.65982328 0.81620248 0.68012713 0.31022602 -0.20623397 0.030208269 0.09401515199999999
0.35334228 0.37652863 0.65982328 0.81620248 0.68012713 0.31022602 -0.20623397 0.030208269 0.09401515199999999 -0.10082389
0.37652863 0.65982328 0.81620248 0.68012713 0.31022602 -0.20623397 0.030208269 0.09401515199999999 -0.10082389 -0.28888674
0.65982328 0.81620248 0.68012713 0.31022602 -0.20623397 0.030208269 0.09401515199999999 -0.10082389 -0.28888674 -0.26615541
0.81620248 0.68012713 0.31022602 -0.20623397 0.030208269 0.09401515199999999 -0.10082389 -0.28888674 -0.26615541 -0.15192877
0.68012713 0.31022602 -0.20623397 0.030208269 0.09401515199999999 -0.10082389 -0.28888674 -0.26615541 -0.15192877 -0.47783739999999997
0.31022602 -0.20623397 0.030208269 0.09401515199999999 -0.10082389 -0.28888674 -0.26615541 -0.15192877 -0.47783739999999997 -0.22496145
-0.20623397 0.030208269 0.09401515199999999 -0.10082389 -0.28888674 -0.26615541 -0.15192877 -0.47783739999999997 -0.22496145 -0.27264759
0.030208269 0.09401515199999999 -0.10082389 -0.28888674 -0.26615541 -0.15192877 -0.47783739999999997 -0.22496145 -0.27264759 -0.48406800000000005
0.09401515199999999 -0.10082389 -0.28888674 -0.26615541 -0.15192877 -0.47783739999999997 -0.22496145 -0.27264759 -0.48406800000000005 -0.51663144
-0.10082389 -0.28888674 -0.26615541 -0.15192877 -0.47783739999999997 -0.22496145 -0.27264759 -0.48406800000000005 -0.51663144 -0.57430419
-0.28888674 -0.26615541 -0.15192877 -0.47783739999999997 -0.22496145 -0.27264759 -0.48406800000000005 -0.51663144 -0.57430419 -0.14115629999999998
-0.26615541 -0.15192877 -0.47783739999999997 -0.22496145 -0.27264759 -0.48406800000000005 -0.51663144 -0.57430419 -0.14115629999999998 -0.44795985
-0.15192877 -0.47783739999999997 -0.22496145 -0.27264759 -0.48406800000000005 -0.51663144 -0.57430419 -0.14115629999999998 -0.44795985 -0.73801942
-0.47783739999999997 -0.22496145 -0.27264759 -0.48406800000000005 -0.51663144 -0.57430419 -0.14115629999999998 -0.44795985 -0.73801942 -0.39860496
-0.22496145 -0.27264759 -0.48406800000000005 -0.51663144 -0.57430419 -0.14115629999999998 -0.44795985 -0.73801942 -0.39860496 -0.48868911
-0.27264759 -0.48406800000000005 -0.51663144 -0.57430419 -0.14115629999999998 -0.44795985 -0.73801942 -0.39860496 -0.48868911 -0.23231543
