0.5264121 1.0079023999999999 1.7898943999999999 2.3580139 2.3014737000000003 2.0870246 1.9675563999999999 1.5140547 0.75045389 0.11539967
1.0079023999999999 1.7898943999999999 2.3580139 2.3014737000000003 2.0870246 1.9675563999999999 1.5140547 0.75045389 0.11539967 -0.22783536
1.7898943999999999 2.3580139 2.3014737000000003 2.0870246 1.9675563999999999 1.5140547 0.75045389 0.11539967 -0.22783536 -0.20111247
2.3580139 2.3014737000000003 2.0870246 1.9675563999999999 1.5140547 0.75045389 0.11539967 -0.22783536 -0.20111247 0.0014060274
2.3014737000000003 2.0870246 1.9675563999999999 1.5140547 0.75045389 0.11539967 -0.22783536 -0.20111247 0.0014060274 -0.09039341599999999
2.0870246 1.9675563999999999 1.5140547 0.75045389 0.11539967 -0.22783536 -0.20111247 0.0014060274 -0.09039341599999999 -0.36348937
1.9675563999999999 1.5140547 0.75045389 0.11539967 -0.22783536 -0.20111247 0.0014060274 -0.09039341599999999 -0.36348937 -0.43495219
1.5140547 0.75045389 0.11539967 -0.22783536 -0.20111247 0.0014060274 -0.09039341599999999 -0.36348937 -0.43495219 -0.42163636
0.75045389 0.11539967 -0.22783536 -0.20111247 0.0014060274 -0.09039341599999999 -0.36348937 -0.43495219 -0.42163636 -0.38390173
0.11539967 -0.22783536 -0.20111247 0.0014060274 -0.09039341599999999 -0.36348937 -0.43495219 -0.42163636 -0.38390173 -0.24369553
-0.22783536 -0.20111247 0.0014060274 -0.09039341599999999 -0.36348937 -0.43495219 -0.42163636 -0.38390173 -0.24369553 -0.29330432
-0.20111247 0.0014060274 -0.09039341599999999 -0.36348937 -0.43495219 -0.42163636 -0.38390173 -0.24369553 -0.29330432 -0.59897814
0.0014060274 -0.09039341599999999 -0.36348937 -0.43495219 -0.42163636 -0.38390173 -0.24369553 -0.29330432 -0.59897814 -0.79239756
-0.09039341599999999 -0.36348937 -0.43495219 -0.42163636 -0.38390173 -0.24369553 -0.29330432 -0.59897814 -0.79239756 -0.79440992
-0.36348937 -0.43495219 -0.42163636 -0.38390173 -0.24369553 -0.29330432 -0.59897814 -0.79239756 -0.79440992 -0.74223293
-0.43495219 -0.42163636 -0.38390173 -0.24369553 -0.29330432 -0.59897814 -0.79239756 -0.79440992 -0.74223293 -0.70061494
-0.42163636 -0.38390173 -0.24369553 -0.29330432 -0.59897814 -0.79239756 -0.79440992 -0.74223293 -0.70061494 -0.84145907
-0.38390173 -0.24369553 -0.29330432 -0.59897814 -0.79239756 -0.79440992 -0.74223293 -0.70061494 -0.84145907 -1.1115483
-0.24369553 -0.29330432 -0.59897814 -0.79239756 -0.79440992 -0.74223293 -0.70061494 -0.84145907 -1.1115483 -1.189314
-0.29330432 -0.59897814 -0.79239756 -0.79440992 -0.74223293 -0.70061494 -0.84145907 -1.1115483 -1.189314 -1.172079
-0.59897814 -0.79239756 -0.79440992 -0.74223293 -0.70061494 -0.84145907 -1.1115483 -1.189314 -1.172079 -1.3321921
-0.79239756 -0.79440992 -0.74223293 -0.70061494 -0.84145907 -1.1115483 -1.189314 -1.172079 -1.3321921 -1.5125598
-0.79440992 -0.74223293 -0.70061494 -0.84145907 -1.1115483 -1.189314 -1.172079 -1.3321921 -1.5125598 -1.560419
-0.74223293 -0.70061494 -0.84145907 -1.1115483 -1.189314 -1.172079 -1.3321921 -1.5125598 -1.560419 -1.6294781
-0.70061494 -0.84145907 -1.1115483 -1.189314 -1.172079 -1.3321921 -1.5125598 -1.560419 -1.6294781 -1.7536261999999998
-0.84145907 -1.1115483 -1.189314 -1.172079 -1.3321921 -1.5125598 -1.560419 -1.6294781 -1.7536261999999998 -1.8152875
-1.1115483 -1.189314 -1.172079 -1.3321921 -1.5125598 -1.560419 -1.6294781 -1.7536261999999998 -1.8152875 -1.8171945
-1.189314 -1.172079 -1.3321921 -1.5125598 -1.560419 -1.6294781 -1.7536261999999998 -1.8152875 -1.8171945 -1.8183641
-1.172079 -1.3321921 -1.5125598 -1.560419 -1.6294781 -1.7536261999999998 -1.8152875 -1.8171945 -1.8183641 -1.8307318
-1.3321921 -1.5125598 -1.560419 -1.6294781 -1.7536261999999998 -1.8152875 -1.8171945 -1.8183641 -1.8307318 -1.8100596000000002
-1.5125598 -1.560419 -1.6294781 -1.7536261999999998 -1.8152875 -1.8171945 -1.8183641 -1.8307318 -1.8100596000000002 -1.6991048
-1.560419 -1.6294781 -1.7536261999999998 -1.8152875 -1.8171945 -1.8183641 -1.8307318 -1.8100596000000002 -1.6991048 -1.54577
-1.6294781 -1.7536261999999998 -1.8152875 -1.8171945 -1.8183641 -1.8307318 -1.8100596000000002 -1.6991048 -1.54577 -1.4566662000000001
-1.7536261999999998 -1.8152875 -1.8171945 -1.8183641 -1.8307318 -1.8100596000000002 -1.6991048 -1.54577 -1.4566662000000001 -1.4365454
-1.8152875 -1.8171945 -1.8183641 -1.8307318 -1.8100596000000002 -1.6991048 -1.54577 -1.4566662000000001 -1.4365454 -1.4095046
-1.8171945 -1.8183641 -1.8307318 -1.8100596000000002 -1.6991048 -1.54577 -1.4566662000000001 -1.4365454 -1.4095046 -1.2618154
-1.8183641 -1.8307318 -1.8100596000000002 -1.6991048 -1.54577 -1.4566662000000001 -1.4365454 -1.4095046 -1.2618154 -0.91441063
-1.8307318 -1.8100596000000002 -1.6991048 -1.54577 -1.4566662000000001 -1.4365454 -1.4095046 -1.2618154 -0.91441063 -0.52657305
-1.8100596000000002 -1.6991048 -1.54577 -1.4566662000000001 -1.4365454 -1.4095046 -1.2618154 -0.91441063 -0.52657305 -0.39644392
-1.6991048 -1.54577 -1.4566662000000001 -1.4365454 -1.4095046 -1.2618154 -0.91441063 -0.52657305 -0.39644392 -0.50146707
-1.54577 -1.4566662000000001 -1.4365454 -1.4095046 -1.2618154 -0.91441063 -0.52657305 -0.39644392 -0.50146707 -0.45028828
-1.4566662000000001 -1.4365454 -1.4095046 -1.2618154 -0.91441063 -0.52657305 -0.39644392 -0.50146707 -0.45028828 -0.13146598
-1.4365454 -1.4095046 -1.2618154 -0.91441063 -0.52657305 -0.39644392 -0.50146707 -0.45028828 -0.13146598 0.069685738
-1.4095046 -1.2618154 -0.91441063 -0.52657305 -0.39644392 -0.50146707 -0.45028828 -0.13146598 0.069685738 0.045052045
-1.2618154 -0.91441063 -0.52657305 -0.39644392 -0.50146707 -0.45028828 -0.13146598 0.069685738 0.045052045 0.12483771
-0.91441063 -0.52657305 -0.39644392 -0.50146707 -0.45028828 -0.13146598 0.069685738 0.045052045 0.12483771 0.26294534
-0.52657305 -0.39644392 -0.50146707 -0.45028828 -0.13146598 0.069685738 0.045052045 0.12483771 0.26294534 0.2428136
-0.39644392 -0.50146707 -0.45028828 -0.13146598 0.069685738 0.045052045 0.12483771 0.26294534 0.2428136 0.3090242
-0.50146707 -0.45028828 -0.13146598 0.069685738 0.045052045 0.12483771 0.26294534 0.2428136 0.3090242 0.45918459999999994
-0.45028828 -0.13146598 0.069685738 0.045052045 0.12483771 0.26294534 0.2428136 0.3090242 0.45918459999999994 0.29894485
-0.13146598 0.069685738 0.045052045 0.12483771 0.26294534 0.2428136 0.3090242 0.45918459999999994 0.29894485 0.096622746
0.069685738 0.045052045 0.12483771 0.26294534 0.2428136 0.3090242 0.45918459999999994 0.29894485 0.096622746 0.32105926
0.045052045 0.12483771 0.26294534 0.2428136 0.3090242 0.45918459999999994 0.29894485 0.096622746 0.32105926 0.55117831
0.12483771 0.26294534 0.2428136 0.3090242 0.45918459999999994 0.29894485 0.096622746 0.32105926 0.55117831 0.35607157
0.26294534 0.2428136 0.3090242 0.45918459999999994 0.29894485 0.096622746 0.32105926 0.55117831 0.35607157 0.19536367
0.2428136 0.3090242 0.45918459999999994 0.29894485 0.096622746 0.32105926 0.55117831 0.35607157 0.19536367 0.41527749
0.3090242 0.45918459999999994 0.29894485 0.096622746 0.32105926 0.55117831 0.35607157 0.19536367 0.41527749 0.5729076
0.45918459999999994 0.29894485 0.096622746 0.32105926 0.55117831 0.35607157 0.19536367 0.41527749 0.5729076 0.41172368
0.29894485 0.096622746 0.32105926 0.55117831 0.35607157 0.19536367 0.41527749 0.5729076 0.41172368 0.33065713
0.096622746 0.32105926 0.55117831 0.35607157 0.19536367 0.41527749 0.5729076 0.41172368 0.33065713 0.45350512
0.32105926 0.55117831 0.35607157 0.19536367 0.41527749 0.5729076 0.41172368 0.33065713 0.45350512 0.4586406
0.55117831 0.35607157 0.19536367 0.41527749 0.5729076 0.41172368 0.33065713 0.45350512 0.4586406 0.39882301
0.35607157 0.19536367 0.41527749 0.5729076 0.41172368 0.33065713 0.45350512 0.4586406 0.39882301 0.494015
0.19536367 0.41527749 0.5729076 0.41172368 0.33065713 0.45350512 0.4586406 0.39882301 0.494015 0.60765852
0.41527749 0.5729076 0.41172368 0.33065713 0.45350512 0.4586406 0.39882301 0.494015 0.60765852 0.63189399
0.5729076 0.41172368 0.33065713 0.45350512 0.4586406 0.39882301 0.494015 0.60765852 0.63189399 0.59523745
0.41172368 0.33065713 0.45350512 0.4586406 0.39882301 0.494015 0.60765852 0.63189399 0.59523745 0.53274663
0.33065713 0.45350512 0.4586406 0.39882301 0.494015 0.60765852 0.63189399 0.59523745 0.53274663 0.60443758
0.45350512 0.4586406 0.39882301 0.494015 0.60765852 0.63189399 0.59523745 0.53274663 0.60443758 0.68789901
0.4586406 0.39882301 0.494015 0.60765852 0.63189399 0.59523745 0.53274663 0.60443758 0.68789901 0.54608739
0.39882301 0.494015 0.60765852 0.63189399 0.59523745 0.53274663 0.60443758 0.68789901 0.54608739 0.58014005
0.494015 0.60765852 0.63189399 0.59523745 0.53274663 0.60443758 0.68789901 0.54608739 0.58014005 0.94054621
0.60765852 0.63189399 0.59523745 0.53274663 0.60443758 0.68789901 0.54608739 0.58014005 0.94054621 1.0174775
0.63189399 0.59523745 0.53274663 0.60443758 0.68789901 0.54608739 0.58014005 0.94054621 1.0174775 0.88870856
0.59523745 0.53274663 0.60443758 0.68789901 0.54608739 0.58014005 0.94054621 1.0174775 0.88870856 1.0290469
0.53274663 0.60443758 0.68789901 0.54608739 0.58014005 0.94054621 1.0174775 0.88870856 1.0290469 1.0391370999999998
0.60443758 0.68789901 0.54608739 0.58014005 0.94054621 1.0174775 0.88870856 1.0290469 1.0391370999999998 0.77887393
0.68789901 0.54608739 0.58014005 0.94054621 1.0174775 0.88870856 1.0290469 1.0391370999999998 0.77887393 0.7795607
0.54608739 0.58014005 0.94054621 1.0174775 0.88870856 1.0290469 1.0391370999999998 0.77887393 0.7795607 0.85121082
0.58014005 0.94054621 1.0174775 0.88870856 1.0290469 1.0391370999999998 0.77887393 0.7795607 0.85121082 0.65955611
0.94054621 1.0174775 0.88870856 1.0290469 1.0391370999999998 0.77887393 0.7795607 0.85121082 0.65955611 0.6312745
1.0174775 0.88870856 1.0290469 1.0391370999999998 0.77887393 0.7795607 0.85121082 0.65955611 0.6312745 0.83081463
0.88870856 1.0290469 1.0391370999999998 0.77887393 0.7795607 0.85121082 0.65955611 0.6312745 0.83081463 0.82709376
1.0290469 1.0391370999999998 0.77887393 0.7795607 0.85121082 0.65955611 0.6312745 0.83081463 0.82709376 0.73991266
1.0391370999999998 0.77887393 0.7795607 0.85121082 0.65955611 0.6312745 0.83081463 0.82709376 0.73991266 0.82409383
0.77887393 0.7795607 0.85121082 0.65955611 0.6312745 0.83081463 0.82709376 0.73991266 0.82409383 0.80693862
0.7795607 0.85121082 0.65955611 0.6312745 0.83081463 0.82709376 0.73991266 0.82409383 0.80693862 0.49505124
