-0.36808017 -0.62198358 -0.60141727 -0.62828928 -0.61144343 -0.39257197 -0.32274168 -0.57911647 -0.89648815 -0.9948452
-0.62198358 -0.60141727 -0.62828928 -0.61144343 -0.39257197 -0.32274168 -0.57911647 -0.89648815 -0.9948452 -0.81096441
-0.60141727 -0.62828928 -0.61144343 -0.39257197 -0.32274168 -0.57911647 -0.89648815 -0.9948452 -0.81096441 -0.74245493
-0.62828928 -0.61144343 -0.39257197 -0.32274168 -0.57911647 -0.89648815 -0.9948452 -0.81096441 -0.74245493 -1.0150701
-0.61144343 -0.39257197 -0.32274168 -0.57911647 -0.89648815 -0.9948452 -0.81096441 -0.74245493 -1.0150701 -1.0731354
-0.39257197 -0.32274168 -0.57911647 -0.89648815 -0.9948452 -0.81096441 -0.74245493 -1.0150701 -1.0731354 -0.85638102
-0.32274168 -0.57911647 -0.89648815 -0.9948452 -0.81096441 -0.74245493 -1.0150701 -1.0731354 -0.85638102 -1.0930954
-0.57911647 -0.89648815 -0.9948452 -0.81096441 -0.74245493 -1.0150701 -1.0731354 -0.85638102 -1.0930954 -1.5145011
-0.89648815 -0.9948452 -0.81096441 -0.74245493 -1.0150701 -1.0731354 -0.85638102 -1.0930954 -1.5145011 -1.3941725
-0.9948452 -0.81096441 -0.74245493 -1.0150701 -1.0731354 -0.85638102 -1.0930954 -1.5145011 -1.3941725 -1.1909184
-0.81096441 -0.74245493 -1.0150701 -1.0731354 -0.85638102 -1.0930954 -1.5145011 -1.3941725 -1.1909184 -1.5410888
-0.74245493 -1.0150701 -1.0731354 -0.85638102 -1.0930954 -1.5145011 -1.3941725 -1.1909184 -1.5410888 -1.8866602
-1.0150701 -1.0731354 -0.85638102 -1.0930954 -1.5145011 -1.3941725 -1.1909184 -1.5410888 -1.8866602 -1.7607609
-1.0731354 -0.85638102 -1.0930954 -1.5145011 -1.3941725 -1.1909184 -1.5410888 -1.8866602 -1.7607609 -1.916579
-0.85638102 -1.0930954 -1.5145011 -1.3941725 -1.1909184 -1.5410888 -1.8866602 -1.7607609 -1.916579 -2.0768171000000004
-1.0930954 -1.5145011 -1.3941725 -1.1909184 -1.5410888 -1.8866602 -1.7607609 -1.916579 -2.0768171000000004 -1.7355405
-1.5145011 -1.3941725 -1.1909184 -1.5410888 -1.8866602 -1.7607609 -1.916579 -2.0768171000000004 -1.7355405 -1.918453
-1.3941725 -1.1909184 -1.5410888 -1.8866602 -1.7607609 -1.916579 -2.0768171000000004 -1.7355405 -1.918453 -2.1974395
-1.1909184 -1.5410888 -1.8866602 -1.7607609 -1.916579 -2.0768171000000004 -1.7355405 -1.918453 -2.1974395 -1.7578711
-1.5410888 -1.8866602 -1.7607609 -1.916579 -2.0768171000000004 -1.7355405 -1.918453 -2.1974395 -1.7578711 -1.5190403000000001
-1.8866602 -1.7607609 -1.916579 -2.0768171000000004 -1.7355405 -1.918453 -2.1974395 -1.7578711 -1.5190403000000001 -1.585452
-1.7607609 -1.916579 -2.0768171000000004 -1.7355405 -1.918453 -2.1974395 -1.7578711 -1.5190403000000001 -1.585452 -1.3944578
-1.916579 -2.0768171000000004 -1.7355405 -1.918453 -2.1974395 -1.7578711 -1.5190403000000001 -1.585452 -1.3944578 -1.003315
-2.0768171000000004 -1.7355405 -1.918453 -2.1974395 -1.7578711 -1.5190403000000001 -1.585452 -1.3944578 -1.003315 -0.6906748
-1.7355405 -1.918453 -2.1974395 -1.7578711 -1.5190403000000001 -1.585452 -1.3944578 -1.003315 -0.6906748 -0.48888243
-1.918453 -2.1974395 -1.7578711 -1.5190403000000001 -1.585452 -1.3944578 -1.003315 -0.6906748 -0.48888243 -0.11740004
-2.1974395 -1.7578711 -1.5190403000000001 -1.585452 -1.3944578 -1.003315 -0.6906748 -0.48888243 -0.11740004 0.25205028
-1.7578711 -1.5190403000000001 -1.585452 -1.3944578 -1.003315 -0.6906748 -0.48888243 -0.11740004 0.25205028 0.153349
-1.5190403000000001 -1.585452 -1.3944578 -1.003315 -0.6906748 -0.48888243 -0.11740004 0.25205028 0.153349 0.13985183
-1.585452 -1.3944578 -1.003315 -0.6906748 -0.48888243 -0.11740004 0.25205028 0.153349 0.13985183 0.55046178
-1.3944578 -1.003315 -0.6906748 -0.48888243 -0.11740004 0.25205028 0.153349 0.13985183 0.55046178 0.54731812
-1.003315 -0.6906748 -0.48888243 -0.11740004 0.25205028 0.153349 0.13985183 0.55046178 0.54731812 0.31909548
-0.6906748 -0.48888243 -0.11740004 0.25205028 0.153349 0.13985183 0.55046178 0.54731812 0.31909548 0.50850911
-0.48888243 -0.11740004 0.25205028 0.153349 0.13985183 0.55046178 0.54731812 0.31909548 0.50850911 0.62449724
-0.11740004 0.25205028 0.153349 0.13985183 0.55046178 0.54731812 0.31909548 0.50850911 0.62449724 0.59734396
0.25205028 0.153349 0.13985183 0.55046178 0.54731812 0.31909548 0.50850911 0.62449724 0.59734396 0.61482105
0.153349 0.13985183 0.55046178 0.54731812 0.31909548 0.50850911 0.62449724 0.59734396 0.61482105 0.47970538
0.13985183 0.55046178 0.54731812 0.31909548 0.50850911 0.62449724 0.59734396 0.61482105 0.47970538 0.46921327
0.55046178 0.54731812 0.31909548 0.50850911 0.62449724 0.59734396 0.61482105 0.47970538 0.46921327 0.63920536
0.54731812 0.31909548 0.50850911 0.62449724 0.59734396 0.61482105 0.47970538 0.46921327 0.63920536 0.49066668
0.31909548 0.50850911 0.62449724 0.59734396 0.61482105 0.47970538 0.46921327 0.63920536 0.49066668 0.33888959999999996
0.50850911 0.62449724 0.59734396 0.61482105 0.47970538 0.46921327 0.63920536 0.49066668 0.33888959999999996 0.51168528
0.62449724 0.59734396 0.61482105 0.47970538 0.46921327 0.63920536 0.49066668 0.33888959999999996 0.51168528 0.58297709
0.59734396 0.61482105 0.47970538 0.46921327 0.63920536 0.49066668 0.33888959999999996 0.51168528 0.58297709 0.50136524
0.61482105 0.47970538 0.46921327 0.63920536 0.49066668 0.33888959999999996 0.51168528 0.58297709 0.50136524 0.44552905
0.47970538 0.46921327 0.63920536 0.49066668 0.33888959999999996 0.51168528 0.58297709 0.50136524 0.44552905 0.49031067
0.46921327 0.63920536 0.49066668 0.33888959999999996 0.51168528 0.58297709 0.50136524 0.44552905 0.49031067 0.57064332
0.63920536 0.49066668 0.33888959999999996 0.51168528 0.58297709 0.50136524 0.44552905 0.49031067 0.57064332 0.54944186
0.49066668 0.33888959999999996 0.51168528 0.58297709 0.50136524 0.44552905 0.49031067 0.57064332 0.54944186 0.6226834
0.33888959999999996 0.51168528 0.58297709 0.50136524 0.44552905 0.49031067 0.57064332 0.54944186 0.6226834 0.70378381
0.51168528 0.58297709 0.50136524 0.44552905 0.49031067 0.57064332 0.54944186 0.6226834 0.70378381 0.70743103
0.58297709 0.50136524 0.44552905 0.49031067 0.57064332 0.54944186 0.6226834 0.70378381 0.70743103 0.83658141
0.50136524 0.44552905 0.49031067 0.57064332 0.54944186 0.6226834 0.70378381 0.70743103 0.83658141 0.97671097
0.44552905 0.49031067 0.57064332 0.54944186 0.6226834 0.70378381 0.70743103 0.83658141 0.97671097 1.0447076
0.49031067 0.57064332 0.54944186 0.6226834 0.70378381 0.70743103 0.83658141 0.97671097 1.0447076 1.1005165000000001
0.57064332 0.54944186 0.6226834 0.70378381 0.70743103 0.83658141 0.97671097 1.0447076 1.1005165000000001 1.1871488000000001
0.54944186 0.6226834 0.70378381 0.70743103 0.83658141 0.97671097 1.0447076 1.1005165000000001 1.1871488000000001 1.2850059
0.6226834 0.70378381 0.70743103 0.83658141 0.97671097 1.0447076 1.1005165000000001 1.1871488000000001 1.2850059 1.2504146
0.70378381 0.70743103 0.83658141 0.97671097 1.0447076 1.1005165000000001 1.1871488000000001 1.2850059 1.2504146 1.1659264999999999
0.70743103 0.83658141 0.97671097 1.0447076 1.1005165000000001 1.1871488000000001 1.2850059 1.2504146 1.1659264999999999 1.0236343
0.83658141 0.97671097 1.0447076 1.1005165000000001 1.1871488000000001 1.2850059 1.2504146 1.1659264999999999 1.0236343 0.81085304
0.97671097 1.0447076 1.1005165000000001 1.1871488000000001 1.2850059 1.2504146 1.1659264999999999 1.0236343 0.81085304 0.69145775
1.0447076 1.1005165000000001 1.1871488000000001 1.2850059 1.2504146 1.1659264999999999 1.0236343 0.81085304 0.69145775 0.56948125
1.1005165000000001 1.1871488000000001 1.2850059 1.2504146 1.1659264999999999 1.0236343 0.81085304 0.69145775 0.56948125 0.58941742
1.1871488000000001 1.2850059 1.2504146 1.1659264999999999 1.0236343 0.81085304 0.69145775 0.56948125 0.58941742 0.70348381
1.2850059 1.2504146 1.1659264999999999 1.0236343 0.81085304 0.69145775 0.56948125 0.58941742 0.70348381 0.68204818
1.2504146 1.1659264999999999 1.0236343 0.81085304 0.69145775 0.56948125 0.58941742 0.70348381 0.68204818 0.59810378
1.1659264999999999 1.0236343 0.81085304 0.69145775 0.56948125 0.58941742 0.70348381 0.68204818 0.59810378 0.23660011
1.0236343 0.81085304 0.69145775 0.56948125 0.58941742 0.70348381 0.68204818 0.59810378 0.23660011 0.11398171
0.81085304 0.69145775 0.56948125 0.58941742 0.70348381 0.68204818 0.59810378 0.23660011 0.11398171 0.39492419
0.69145775 0.56948125 0.58941742 0.70348381 0.68204818 0.59810378 0.23660011 0.11398171 0.39492419 0.34853846
0.56948125 0.58941742 0.70348381 0.68204818 0.59810378 0.23660011 0.11398171 0.39492419 0.34853846 0.38970864
0.58941742 0.70348381 0.68204818 0.59810378 0.23660011 0.11398171 0.39492419 0.34853846 0.38970864 0.45654441
0.70348381 0.68204818 0.59810378 0.23660011 0.11398171 0.39492419 0.34853846 0.38970864 0.45654441 0.15365625
0.68204818 0.59810378 0.23660011 0.11398171 0.39492419 0.34853846 0.38970864 0.45654441 0.15365625 0.18117864
0.59810378 0.23660011 0.11398171 0.39492419 0.34853846 0.38970864 0.45654441 0.15365625 0.18117864 0.36646374
0.23660011 0.11398171 0.39492419 0.34853846 0.38970864 0.45654441 0.15365625 0.18117864 0.36646374 0.29835318
0.11398171 0.39492419 0.34853846 0.38970864 0.45654441 0.15365625 0.18117864 0.36646374 0.29835318 0.55686438
0.39492419 0.34853846 0.38970864 0.45654441 0.15365625 0.18117864 0.36646374 0.29835318 0.55686438 0.96894031
0.34853846 0.38970864 0.45654441 0.15365625 0.18117864 0.36646374 0.29835318 0.55686438 0.96894031 1.3547533
0.38970864 0.45654441 0.15365625 0.18117864 0.36646374 0.29835318 0.55686438 0.96894031 1.3547533 2.1901509
0.45654441 0.15365625 0.18117864 0.36646374 0.29835318 0.55686438 0.96894031 1.3547533 2.1901509 2.4654772
0.15365625 0.18117864 0.36646374 0.29835318 0.55686438 0.96894031 1.3547533 2.1901509 2.4654772 1.6466619999999998
0.18117864 0.36646374 0.29835318 0.55686438 0.96894031 1.3547533 2.1901509 2.4654772 1.6466619999999998 0.92194246
0.36646374 0.29835318 0.55686438 0.96894031 1.3547533 2.1901509 2.4654772 1.6466619999999998 0.92194246 0.27019593
0.29835318 0.55686438 0.96894031 1.3547533 2.1901509 2.4654772 1.6466619999999998 0.92194246 0.27019593 -0.49064016
0.55686438 0.96894031 1.3547533 2.1901509 2.4654772 1.6466619999999998 0.92194246 0.27019593 -0.49064016 -0.45251328
