0.08725314 1.2520476999999999 1.9706734000000001 1.7369054 1.3942079 -0.28091459 -0.36111772 0.82250354 0.057914995 0.019468541000000002
1.2520476999999999 1.9706734000000001 1.7369054 1.3942079 -0.28091459 -0.36111772 0.82250354 0.057914995 0.019468541000000002 0.2184925
1.9706734000000001 1.7369054 1.3942079 -0.28091459 -0.36111772 0.82250354 0.057914995 0.019468541000000002 0.2184925 -0.68816176
1.7369054 1.3942079 -0.28091459 -0.36111772 0.82250354 0.057914995 0.019468541000000002 0.2184925 -0.68816176 -0.93545714
1.3942079 -0.28091459 -0.36111772 0.82250354 0.057914995 0.019468541000000002 0.2184925 -0.68816176 -0.93545714 -0.99010877
-0.28091459 -0.36111772 0.82250354 0.057914995 0.019468541000000002 0.2184925 -0.68816176 -0.93545714 -0.99010877 -1.0866248
-0.36111772 0.82250354 0.057914995 0.019468541000000002 0.2184925 -0.68816176 -0.93545714 -0.99010877 -1.0866248 -1.1528112
0.82250354 0.057914995 0.019468541000000002 0.2184925 -0.68816176 -0.93545714 -0.99010877 -1.0866248 -1.1528112 -1.2421486000000002
0.057914995 0.019468541000000002 0.2184925 -0.68816176 -0.93545714 -0.99010877 -1.0866248 -1.1528112 -1.2421486000000002 -1.2978638999999998
0.019468541000000002 0.2184925 -0.68816176 -0.93545714 -0.99010877 -1.0866248 -1.1528112 -1.2421486000000002 -1.2978638999999998 -1.3145733999999998
0.2184925 -0.68816176 -0.93545714 -0.99010877 -1.0866248 -1.1528112 -1.2421486000000002 -1.2978638999999998 -1.3145733999999998 -1.3549396999999999
-0.68816176 -0.93545714 -0.99010877 -1.0866248 -1.1528112 -1.2421486000000002 -1.2978638999999998 -1.3145733999999998 -1.3549396999999999 -1.4753261
-0.93545714 -0.99010877 -1.0866248 -1.1528112 -1.2421486000000002 -1.2978638999999998 -1.3145733999999998 -1.3549396999999999 -1.4753261 -1.4923176
-0.99010877 -1.0866248 -1.1528112 -1.2421486000000002 -1.2978638999999998 -1.3145733999999998 -1.3549396999999999 -1.4753261 -1.4923176 -1.5284035
-1.0866248 -1.1528112 -1.2421486000000002 -1.2978638999999998 -1.3145733999999998 -1.3549396999999999 -1.4753261 -1.4923176 -1.5284035 -1.6943233
-1.1528112 -1.2421486000000002 -1.2978638999999998 -1.3145733999999998 -1.3549396999999999 -1.4753261 -1.4923176 -1.5284035 -1.6943233 -1.7820546999999998
-1.2421486000000002 -1.2978638999999998 -1.3145733999999998 -1.3549396999999999 -1.4753261 -1.4923176 -1.5284035 -1.6943233 -1.7820546999999998 -1.7944331000000002
-1.2978638999999998 -1.3145733999999998 -1.3549396999999999 -1.4753261 -1.4923176 -1.5284035 -1.6943233 -1.7820546999999998 -1.7944331000000002 -1.8747797
-1.3145733999999998 -1.3549396999999999 -1.4753261 -1.4923176 -1.5284035 -1.6943233 -1.7820546999999998 -1.7944331000000002 -1.8747797 -2.0250171000000003
-1.3549396999999999 -1.4753261 -1.4923176 -1.5284035 -1.6943233 -1.7820546999999998 -1.7944331000000002 -1.8747797 -2.0250171000000003 -2.011048
-1.4753261 -1.4923176 -1.5284035 -1.6943233 -1.7820546999999998 -1.7944331000000002 -1.8747797 -2.0250171000000003 -2.011048 -2.0139476999999997
-1.4923176 -1.5284035 -1.6943233 -1.7820546999999998 -1.7944331000000002 -1.8747797 -2.0250171000000003 -2.011048 -2.0139476999999997 -2.1668307
-1.5284035 -1.6943233 -1.7820546999999998 -1.7944331000000002 -1.8747797 -2.0250171000000003 -2.011048 -2.0139476999999997 -2.1668307 -2.0968878
-1.6943233 -1.7820546999999998 -1.7944331000000002 -1.8747797 -2.0250171000000003 -2.011048 -2.0139476999999997 -2.1668307 -2.0968878 -1.8472235000000001
-1.7820546999999998 -1.7944331000000002 -1.8747797 -2.0250171000000003 -2.011048 -2.0139476999999997 -2.1668307 -2.0968878 -1.8472235000000001 -1.7563754
-1.7944331000000002 -1.8747797 -2.0250171000000003 -2.011048 -2.0139476999999997 -2.1668307 -2.0968878 -1.8472235000000001 -1.7563754 -1.5338703000000002
-1.8747797 -2.0250171000000003 -2.011048 -2.0139476999999997 -2.1668307 -2.0968878 -1.8472235000000001 -1.7563754 -1.5338703000000002 -1.144208
-2.0250171000000003 -2.011048 -2.0139476999999997 -2.1668307 -2.0968878 -1.8472235000000001 -1.7563754 -1.5338703000000002 -1.144208 -0.80359528
-2.011048 -2.0139476999999997 -2.1668307 -2.0968878 -1.8472235000000001 -1.7563754 -1.5338703000000002 -1.144208 -0.80359528 -0.43019413
-2.0139476999999997 -2.1668307 -2.0968878 -1.8472235000000001 -1.7563754 -1.5338703000000002 -1.144208 -0.80359528 -0.43019413 -0.12211469
-2.1668307 -2.0968878 -1.8472235000000001 -1.7563754 -1.5338703000000002 -1.144208 -0.80359528 -0.43019413 -0.12211469 0.18942908
-2.0968878 -1.8472235000000001 -1.7563754 -1.5338703000000002 -1.144208 -0.80359528 -0.43019413 -0.12211469 0.18942908 0.44923850000000004
-1.8472235000000001 -1.7563754 -1.5338703000000002 -1.144208 -0.80359528 -0.43019413 -0.12211469 0.18942908 0.44923850000000004 0.51023832
-1.7563754 -1.5338703000000002 -1.144208 -0.80359528 -0.43019413 -0.12211469 0.18942908 0.44923850000000004 0.51023832 0.64912288
-1.5338703000000002 -1.144208 -0.80359528 -0.43019413 -0.12211469 0.18942908 0.44923850000000004 0.51023832 0.64912288 0.74644297
-1.144208 -0.80359528 -0.43019413 -0.12211469 0.18942908 0.44923850000000004 0.51023832 0.64912288 0.74644297 0.65568343
-0.80359528 -0.43019413 -0.12211469 0.18942908 0.44923850000000004 0.51023832 0.64912288 0.74644297 0.65568343 0.58777003
-0.43019413 -0.12211469 0.18942908 0.44923850000000004 0.51023832 0.64912288 0.74644297 0.65568343 0.58777003 0.60879144
-0.12211469 0.18942908 0.44923850000000004 0.51023832 0.64912288 0.74644297 0.65568343 0.58777003 0.60879144 0.66036694
0.18942908 0.44923850000000004 0.51023832 0.64912288 0.74644297 0.65568343 0.58777003 0.60879144 0.66036694 0.42151345
0.44923850000000004 0.51023832 0.64912288 0.74644297 0.65568343 0.58777003 0.60879144 0.66036694 0.42151345 0.42654404
0.51023832 0.64912288 0.74644297 0.65568343 0.58777003 0.60879144 0.66036694 0.42151345 0.42654404 0.60489586
0.64912288 0.74644297 0.65568343 0.58777003 0.60879144 0.66036694 0.42151345 0.42654404 0.60489586 0.52182373
0.74644297 0.65568343 0.58777003 0.60879144 0.66036694 0.42151345 0.42654404 0.60489586 0.52182373 0.5714113000000001
0.65568343 0.58777003 0.60879144 0.66036694 0.42151345 0.42654404 0.60489586 0.52182373 0.5714113000000001 0.58367184
0.58777003 0.60879144 0.66036694 0.42151345 0.42654404 0.60489586 0.52182373 0.5714113000000001 0.58367184 0.57611727
0.60879144 0.66036694 0.42151345 0.42654404 0.60489586 0.52182373 0.5714113000000001 0.58367184 0.57611727 0.58776723
0.66036694 0.42151345 0.42654404 0.60489586 0.52182373 0.5714113000000001 0.58367184 0.57611727 0.58776723 0.63383532
0.42151345 0.42654404 0.60489586 0.52182373 0.5714113000000001 0.58367184 0.57611727 0.58776723 0.63383532 0.58023172
0.42654404 0.60489586 0.52182373 0.5714113000000001 0.58367184 0.57611727 0.58776723 0.63383532 0.58023172 0.49449989
0.60489586 0.52182373 0.5714113000000001 0.58367184 0.57611727 0.58776723 0.63383532 0.58023172 0.49449989 0.45595736
0.52182373 0.5714113000000001 0.58367184 0.57611727 0.58776723 0.63383532 0.58023172 0.49449989 0.45595736 0.54473783
0.5714113000000001 0.58367184 0.57611727 0.58776723 0.63383532 0.58023172 0.49449989 0.45595736 0.54473783 0.52592434
0.58367184 0.57611727 0.58776723 0.63383532 0.58023172 0.49449989 0.45595736 0.54473783 0.52592434 0.38214582
0.57611727 0.58776723 0.63383532 0.58023172 0.49449989 0.45595736 0.54473783 0.52592434 0.38214582 0.43976674
0.58776723 0.63383532 0.58023172 0.49449989 0.45595736 0.54473783 0.52592434 0.38214582 0.43976674 0.52711614
0.63383532 0.58023172 0.49449989 0.45595736 0.54473783 0.52592434 0.38214582 0.43976674 0.52711614 0.50140767
0.58023172 0.49449989 0.45595736 0.54473783 0.52592434 0.38214582 0.43976674 0.52711614 0.50140767 0.41953567
0.49449989 0.45595736 0.54473783 0.52592434 0.38214582 0.43976674 0.52711614 0.50140767 0.41953567 0.38130368
0.45595736 0.54473783 0.52592434 0.38214582 0.43976674 0.52711614 0.50140767 0.41953567 0.38130368 0.42180031
0.54473783 0.52592434 0.38214582 0.43976674 0.52711614 0.50140767 0.41953567 0.38130368 0.42180031 0.38075815
0.52592434 0.38214582 0.43976674 0.52711614 0.50140767 0.41953567 0.38130368 0.42180031 0.38075815 0.44102916
0.38214582 0.43976674 0.52711614 0.50140767 0.41953567 0.38130368 0.42180031 0.38075815 0.44102916 0.55042779
0.43976674 0.52711614 0.50140767 0.41953567 0.38130368 0.42180031 0.38075815 0.44102916 0.55042779 0.46371421
0.52711614 0.50140767 0.41953567 0.38130368 0.42180031 0.38075815 0.44102916 0.55042779 0.46371421 0.42800741
0.50140767 0.41953567 0.38130368 0.42180031 0.38075815 0.44102916 0.55042779 0.46371421 0.42800741 0.72512227
0.41953567 0.38130368 0.42180031 0.38075815 0.44102916 0.55042779 0.46371421 0.42800741 0.72512227 0.86005159
0.38130368 0.42180031 0.38075815 0.44102916 0.55042779 0.46371421 0.42800741 0.72512227 0.86005159 1.008694
0.42180031 0.38075815 0.44102916 0.55042779 0.46371421 0.42800741 0.72512227 0.86005159 1.008694 1.0243868
0.38075815 0.44102916 0.55042779 0.46371421 0.42800741 0.72512227 0.86005159 1.008694 1.0243868 0.86485997
0.44102916 0.55042779 0.46371421 0.42800741 0.72512227 0.86005159 1.008694 1.0243868 0.86485997 0.87815173
0.55042779 0.46371421 0.42800741 0.72512227 0.86005159 1.008694 1.0243868 0.86485997 0.87815173 0.69027609
0.46371421 0.42800741 0.72512227 0.86005159 1.008694 1.0243868 0.86485997 0.87815173 0.69027609 0.63679502
0.42800741 0.72512227 0.86005159 1.008694 1.0243868 0.86485997 0.87815173 0.69027609 0.63679502 0.70271127
0.72512227 0.86005159 1.008694 1.0243868 0.86485997 0.87815173 0.69027609 0.63679502 0.70271127 0.55505912
0.86005159 1.008694 1.0243868 0.86485997 0.87815173 0.69027609 0.63679502 0.70271127 0.55505912 0.34563621
1.008694 1.0243868 0.86485997 0.87815173 0.69027609 0.63679502 0.70271127 0.55505912 0.34563621 0.55502419
1.0243868 0.86485997 0.87815173 0.69027609 0.63679502 0.70271127 0.55505912 0.34563621 0.55502419 0.74035298
0.86485997 0.87815173 0.69027609 0.63679502 0.70271127 0.55505912 0.34563621 0.55502419 0.74035298 0.44952291
0.87815173 0.69027609 0.63679502 0.70271127 0.55505912 0.34563621 0.55502419 0.74035298 0.44952291 0.47831376
0.69027609 0.63679502 0.70271127 0.55505912 0.34563621 0.55502419 0.74035298 0.44952291 0.47831376 0.56835381
0.63679502 0.70271127 0.55505912 0.34563621 0.55502419 0.74035298 0.44952291 0.47831376 0.56835381 0.65437888
0.70271127 0.55505912 0.34563621 0.55502419 0.74035298 0.44952291 0.47831376 0.56835381 0.65437888 0.53082438
0.55505912 0.34563621 0.55502419 0.74035298 0.44952291 0.47831376 0.56835381 0.65437888 0.53082438 0.64064978
0.34563621 0.55502419 0.74035298 0.44952291 0.47831376 0.56835381 0.65437888 0.53082438 0.64064978 0.73917852
0.55502419 0.74035298 0.44952291 0.47831376 0.56835381 0.65437888 0.53082438 0.64064978 0.73917852 0.51967381
0.74035298 0.44952291 0.47831376 0.56835381 0.65437888 0.53082438 0.64064978 0.73917852 0.51967381 0.64716018
