0.46679299 0.50362537 0.78866915 0.22293579999999996 0.53730356 0.04355325 -0.26114082 0.80315578 -0.13952279999999997 -0.61216233
0.50362537 0.78866915 0.22293579999999996 0.53730356 0.04355325 -0.26114082 0.80315578 -0.13952279999999997 -0.61216233 -0.32442077
0.78866915 0.22293579999999996 0.53730356 0.04355325 -0.26114082 0.80315578 -0.13952279999999997 -0.61216233 -0.32442077 -0.16721713
0.22293579999999996 0.53730356 0.04355325 -0.26114082 0.80315578 -0.13952279999999997 -0.61216233 -0.32442077 -0.16721713 -0.21054138
0.53730356 0.04355325 -0.26114082 0.80315578 -0.13952279999999997 -0.61216233 -0.32442077 -0.16721713 -0.21054138 -0.95789518
0.04355325 -0.26114082 0.80315578 -0.13952279999999997 -0.61216233 -0.32442077 -0.16721713 -0.21054138 -0.95789518 -0.096172781
-0.26114082 0.80315578 -0.13952279999999997 -0.61216233 -0.32442077 -0.16721713 -0.21054138 -0.95789518 -0.096172781 -0.31173137
0.80315578 -0.13952279999999997 -0.61216233 -0.32442077 -0.16721713 -0.21054138 -0.95789518 -0.096172781 -0.31173137 -0.74357761
-0.13952279999999997 -0.61216233 -0.32442077 -0.16721713 -0.21054138 -0.95789518 -0.096172781 -0.31173137 -0.74357761 -0.87320425
-0.61216233 -0.32442077 -0.16721713 -0.21054138 -0.95789518 -0.096172781 -0.31173137 -0.74357761 -0.87320425 -1.0822995
-0.32442077 -0.16721713 -0.21054138 -0.95789518 -0.096172781 -0.31173137 -0.74357761 -0.87320425 -1.0822995 -0.63932937
-0.16721713 -0.21054138 -0.95789518 -0.096172781 -0.31173137 -0.74357761 -0.87320425 -1.0822995 -0.63932937 -1.4214385
-0.21054138 -0.95789518 -0.096172781 -0.31173137 -0.74357761 -0.87320425 -1.0822995 -0.63932937 -1.4214385 -1.884789
-0.95789518 -0.096172781 -0.31173137 -0.74357761 -0.87320425 -1.0822995 -0.63932937 -1.4214385 -1.884789 -0.75447711
-0.096172781 -0.31173137 -0.74357761 -0.87320425 -1.0822995 -0.63932937 -1.4214385 -1.884789 -0.75447711 -1.2973123
-0.31173137 -0.74357761 -0.87320425 -1.0822995 -0.63932937 -1.4214385 -1.884789 -0.75447711 -1.2973123 -2.540979
-0.74357761 -0.87320425 -1.0822995 -0.63932937 -1.4214385 -1.884789 -0.75447711 -1.2973123 -2.540979 -2.3123259
-0.87320425 -1.0822995 -0.63932937 -1.4214385 -1.884789 -0.75447711 -1.2973123 -2.540979 -2.3123259 -2.0156218
-1.0822995 -0.63932937 -1.4214385 -1.884789 -0.75447711 -1.2973123 -2.540979 -2.3123259 -2.0156218 -2.2682195
-0.63932937 -1.4214385 -1.884789 -0.75447711 -1.2973123 -2.540979 -2.3123259 -2.0156218 -2.2682195 -2.6171746
-1.4214385 -1.884789 -0.75447711 -1.2973123 -2.540979 -2.3123259 -2.0156218 -2.2682195 -2.6171746 -2.4110906
-1.884789 -0.75447711 -1.2973123 -2.540979 -2.3123259 -2.0156218 -2.2682195 -2.6171746 -2.4110906 -2.1820322
-0.75447711 -1.2973123 -2.540979 -2.3123259 -2.0156218 -2.2682195 -2.6171746 -2.4110906 -2.1820322 -2.1904258999999997
-1.2973123 -2.540979 -2.3123259 -2.0156218 -2.2682195 -2.6171746 -2.4110906 -2.1820322 -2.1904258999999997 -2.1644801
-2.540979 -2.3123259 -2.0156218 -2.2682195 -2.6171746 -2.4110906 -2.1820322 -2.1904258999999997 -2.1644801 -1.7266158999999999
-2.3123259 -2.0156218 -2.2682195 -2.6171746 -2.4110906 -2.1820322 -2.1904258999999997 -2.1644801 -1.7266158999999999 -1.1703101999999999
-2.0156218 -2.2682195 -2.6171746 -2.4110906 -2.1820322 -2.1904258999999997 -2.1644801 -1.7266158999999999 -1.1703101999999999 -1.2692843
-2.2682195 -2.6171746 -2.4110906 -2.1820322 -2.1904258999999997 -2.1644801 -1.7266158999999999 -1.1703101999999999 -1.2692843 -1.1404063999999998
-2.6171746 -2.4110906 -2.1820322 -2.1904258999999997 -2.1644801 -1.7266158999999999 -1.1703101999999999 -1.2692843 -1.1404063999999998 -0.22604982
-2.4110906 -2.1820322 -2.1904258999999997 -2.1644801 -1.7266158999999999 -1.1703101999999999 -1.2692843 -1.1404063999999998 -0.22604982 0.29834944
-2.1820322 -2.1904258999999997 -2.1644801 -1.7266158999999999 -1.1703101999999999 -1.2692843 -1.1404063999999998 -0.22604982 0.29834944 0.22685559
-2.1904258999999997 -2.1644801 -1.7266158999999999 -1.1703101999999999 -1.2692843 -1.1404063999999998 -0.22604982 0.29834944 0.22685559 0.39090723
-2.1644801 -1.7266158999999999 -1.1703101999999999 -1.2692843 -1.1404063999999998 -0.22604982 0.29834944 0.22685559 0.39090723 0.71562147
-1.7266158999999999 -1.1703101999999999 -1.2692843 -1.1404063999999998 -0.22604982 0.29834944 0.22685559 0.39090723 0.71562147 0.77004117
-1.1703101999999999 -1.2692843 -1.1404063999999998 -0.22604982 0.29834944 0.22685559 0.39090723 0.71562147 0.77004117 0.86562574
-1.2692843 -1.1404063999999998 -0.22604982 0.29834944 0.22685559 0.39090723 0.71562147 0.77004117 0.86562574 1.0802876000000001
-1.1404063999999998 -0.22604982 0.29834944 0.22685559 0.39090723 0.71562147 0.77004117 0.86562574 1.0802876000000001 1.0445707
-0.22604982 0.29834944 0.22685559 0.39090723 0.71562147 0.77004117 0.86562574 1.0802876000000001 1.0445707 0.70439676
0.29834944 0.22685559 0.39090723 0.71562147 0.77004117 0.86562574 1.0802876000000001 1.0445707 0.70439676 0.84998655
0.22685559 0.39090723 0.71562147 0.77004117 0.86562574 1.0802876000000001 1.0445707 0.70439676 0.84998655 1.2178231000000002
0.39090723 0.71562147 0.77004117 0.86562574 1.0802876000000001 1.0445707 0.70439676 0.84998655 1.2178231000000002 0.76010925
0.71562147 0.77004117 0.86562574 1.0802876000000001 1.0445707 0.70439676 0.84998655 1.2178231000000002 0.76010925 0.46583469
0.77004117 0.86562574 1.0802876000000001 1.0445707 0.70439676 0.84998655 1.2178231000000002 0.76010925 0.46583469 0.91208319
0.86562574 1.0802876000000001 1.0445707 0.70439676 0.84998655 1.2178231000000002 0.76010925 0.46583469 0.91208319 0.93517011
1.0802876000000001 1.0445707 0.70439676 0.84998655 1.2178231000000002 0.76010925 0.46583469 0.91208319 0.93517011 0.63411733
1.0445707 0.70439676 0.84998655 1.2178231000000002 0.76010925 0.46583469 0.91208319 0.93517011 0.63411733 0.59564138
0.70439676 0.84998655 1.2178231000000002 0.76010925 0.46583469 0.91208319 0.93517011 0.63411733 0.59564138 0.70628078
0.84998655 1.2178231000000002 0.76010925 0.46583469 0.91208319 0.93517011 0.63411733 0.59564138 0.70628078 0.91283177
1.2178231000000002 0.76010925 0.46583469 0.91208319 0.93517011 0.63411733 0.59564138 0.70628078 0.91283177 0.82767998
0.76010925 0.46583469 0.91208319 0.93517011 0.63411733 0.59564138 0.70628078 0.91283177 0.82767998 0.61224018
0.46583469 0.91208319 0.93517011 0.63411733 0.59564138 0.70628078 0.91283177 0.82767998 0.61224018 0.9540478000000001
0.91208319 0.93517011 0.63411733 0.59564138 0.70628078 0.91283177 0.82767998 0.61224018 0.9540478000000001 0.97561273
0.93517011 0.63411733 0.59564138 0.70628078 0.91283177 0.82767998 0.61224018 0.9540478000000001 0.97561273 0.62999832
0.63411733 0.59564138 0.70628078 0.91283177 0.82767998 0.61224018 0.9540478000000001 0.97561273 0.62999832 0.53994467
0.59564138 0.70628078 0.91283177 0.82767998 0.61224018 0.9540478000000001 0.97561273 0.62999832 0.53994467 0.48173320000000003
0.70628078 0.91283177 0.82767998 0.61224018 0.9540478000000001 0.97561273 0.62999832 0.53994467 0.48173320000000003 0.6609393
0.91283177 0.82767998 0.61224018 0.9540478000000001 0.97561273 0.62999832 0.53994467 0.48173320000000003 0.6609393 0.78531361
0.82767998 0.61224018 0.9540478000000001 0.97561273 0.62999832 0.53994467 0.48173320000000003 0.6609393 0.78531361 0.82605179
0.61224018 0.9540478000000001 0.97561273 0.62999832 0.53994467 0.48173320000000003 0.6609393 0.78531361 0.82605179 0.64012639
0.9540478000000001 0.97561273 0.62999832 0.53994467 0.48173320000000003 0.6609393 0.78531361 0.82605179 0.64012639 0.27749628
0.97561273 0.62999832 0.53994467 0.48173320000000003 0.6609393 0.78531361 0.82605179 0.64012639 0.27749628 0.50911507
0.62999832 0.53994467 0.48173320000000003 0.6609393 0.78531361 0.82605179 0.64012639 0.27749628 0.50911507 0.69916736
0.53994467 0.48173320000000003 0.6609393 0.78531361 0.82605179 0.64012639 0.27749628 0.50911507 0.69916736 0.74421755
0.48173320000000003 0.6609393 0.78531361 0.82605179 0.64012639 0.27749628 0.50911507 0.69916736 0.74421755 0.033625115
0.6609393 0.78531361 0.82605179 0.64012639 0.27749628 0.50911507 0.69916736 0.74421755 0.033625115 0.47069981
0.78531361 0.82605179 0.64012639 0.27749628 0.50911507 0.69916736 0.74421755 0.033625115 0.47069981 0.77461005
0.82605179 0.64012639 0.27749628 0.50911507 0.69916736 0.74421755 0.033625115 0.47069981 0.77461005 0.27925622
0.64012639 0.27749628 0.50911507 0.69916736 0.74421755 0.033625115 0.47069981 0.77461005 0.27925622 0.44518242
0.27749628 0.50911507 0.69916736 0.74421755 0.033625115 0.47069981 0.77461005 0.27925622 0.44518242 0.18205782
0.50911507 0.69916736 0.74421755 0.033625115 0.47069981 0.77461005 0.27925622 0.44518242 0.18205782 0.68915684
0.69916736 0.74421755 0.033625115 0.47069981 0.77461005 0.27925622 0.44518242 0.18205782 0.68915684 0.62440027
0.74421755 0.033625115 0.47069981 0.77461005 0.27925622 0.44518242 0.18205782 0.68915684 0.62440027 -0.097793865
0.033625115 0.47069981 0.77461005 0.27925622 0.44518242 0.18205782 0.68915684 0.62440027 -0.097793865 0.49746032
0.47069981 0.77461005 0.27925622 0.44518242 0.18205782 0.68915684 0.62440027 -0.097793865 0.49746032 0.34999828
0.77461005 0.27925622 0.44518242 0.18205782 0.68915684 0.62440027 -0.097793865 0.49746032 0.34999828 0.34933738
0.27925622 0.44518242 0.18205782 0.68915684 0.62440027 -0.097793865 0.49746032 0.34999828 0.34933738 0.32493302
0.44518242 0.18205782 0.68915684 0.62440027 -0.097793865 0.49746032 0.34999828 0.34933738 0.32493302 0.59795569
0.18205782 0.68915684 0.62440027 -0.097793865 0.49746032 0.34999828 0.34933738 0.32493302 0.59795569 1.0019738999999999
0.68915684 0.62440027 -0.097793865 0.49746032 0.34999828 0.34933738 0.32493302 0.59795569 1.0019738999999999 0.67440973
0.62440027 -0.097793865 0.49746032 0.34999828 0.34933738 0.32493302 0.59795569 1.0019738999999999 0.67440973 0.73932393
-0.097793865 0.49746032 0.34999828 0.34933738 0.32493302 0.59795569 1.0019738999999999 0.67440973 0.73932393 0.54086328
0.49746032 0.34999828 0.34933738 0.32493302 0.59795569 1.0019738999999999 0.67440973 0.73932393 0.54086328 0.34583422
0.34999828 0.34933738 0.32493302 0.59795569 1.0019738999999999 0.67440973 0.73932393 0.54086328 0.34583422 0.7777283
0.34933738 0.32493302 0.59795569 1.0019738999999999 0.67440973 0.73932393 0.54086328 0.34583422 0.7777283 0.24812779999999998
0.32493302 0.59795569 1.0019738999999999 0.67440973 0.73932393 0.54086328 0.34583422 0.7777283 0.24812779999999998 0.0042834998999999995
0.59795569 1.0019738999999999 0.67440973 0.73932393 0.54086328 0.34583422 0.7777283 0.24812779999999998 0.0042834998999999995 0.42519351
1.0019738999999999 0.67440973 0.73932393 0.54086328 0.34583422 0.7777283 0.24812779999999998 0.0042834998999999995 0.42519351 0.11737688
