1.1688741000000002 2.0759008000000003 1.7601404999999999 1.6064459 1.9490456000000003 1.3028421000000001 0.45933154 0.51641212 0.85217953 0.98922717
2.0759008000000003 1.7601404999999999 1.6064459 1.9490456000000003 1.3028421000000001 0.45933154 0.51641212 0.85217953 0.98922717 0.82125349
1.7601404999999999 1.6064459 1.9490456000000003 1.3028421000000001 0.45933154 0.51641212 0.85217953 0.98922717 0.82125349 0.57644764
1.6064459 1.9490456000000003 1.3028421000000001 0.45933154 0.51641212 0.85217953 0.98922717 0.82125349 0.57644764 0.74308944
1.9490456000000003 1.3028421000000001 0.45933154 0.51641212 0.85217953 0.98922717 0.82125349 0.57644764 0.74308944 0.8529701999999999
1.3028421000000001 0.45933154 0.51641212 0.85217953 0.98922717 0.82125349 0.57644764 0.74308944 0.8529701999999999 0.30745835
0.45933154 0.51641212 0.85217953 0.98922717 0.82125349 0.57644764 0.74308944 0.8529701999999999 0.30745835 -0.13039065
0.51641212 0.85217953 0.98922717 0.82125349 0.57644764 0.74308944 0.8529701999999999 0.30745835 -0.13039065 -0.062199969
0.85217953 0.98922717 0.82125349 0.57644764 0.74308944 0.8529701999999999 0.30745835 -0.13039065 -0.062199969 -0.10072696
0.98922717 0.82125349 0.57644764 0.74308944 0.8529701999999999 0.30745835 -0.13039065 -0.062199969 -0.10072696 -0.23281819
0.82125349 0.57644764 0.74308944 0.8529701999999999 0.30745835 -0.13039065 -0.062199969 -0.10072696 -0.23281819 -0.23446477
0.57644764 0.74308944 0.8529701999999999 0.30745835 -0.13039065 -0.062199969 -0.10072696 -0.23281819 -0.23446477 -0.21475573
0.74308944 0.8529701999999999 0.30745835 -0.13039065 -0.062199969 -0.10072696 -0.23281819 -0.23446477 -0.21475573 -0.23041257
0.8529701999999999 0.30745835 -0.13039065 -0.062199969 -0.10072696 -0.23281819 -0.23446477 -0.21475573 -0.23041257 -0.22755149
0.30745835 -0.13039065 -0.062199969 -0.10072696 -0.23281819 -0.23446477 -0.21475573 -0.23041257 -0.22755149 -0.23100238
-0.13039065 -0.062199969 -0.10072696 -0.23281819 -0.23446477 -0.21475573 -0.23041257 -0.22755149 -0.23100238 -0.46347873
-0.062199969 -0.10072696 -0.23281819 -0.23446477 -0.21475573 -0.23041257 -0.22755149 -0.23100238 -0.46347873 -0.72421462
-0.10072696 -0.23281819 -0.23446477 -0.21475573 -0.23041257 -0.22755149 -0.23100238 -0.46347873 -0.72421462 -0.78788488
-0.23281819 -0.23446477 -0.21475573 -0.23041257 -0.22755149 -0.23100238 -0.46347873 -0.72421462 -0.78788488 -0.98668657
-0.23446477 -0.21475573 -0.23041257 -0.22755149 -0.23100238 -0.46347873 -0.72421462 -0.78788488 -0.98668657 -1.224672
-0.21475573 -0.23041257 -0.22755149 -0.23100238 -0.46347873 -0.72421462 -0.78788488 -0.98668657 -1.224672 -1.2881418
-0.23041257 -0.22755149 -0.23100238 -0.46347873 -0.72421462 -0.78788488 -0.98668657 -1.224672 -1.2881418 -1.3641481000000002
-0.22755149 -0.23100238 -0.46347873 -0.72421462 -0.78788488 -0.98668657 -1.224672 -1.2881418 -1.3641481000000002 -1.4282213
-0.23100238 -0.46347873 -0.72421462 -0.78788488 -0.98668657 -1.224672 -1.2881418 -1.3641481000000002 -1.4282213 -1.5017669
-0.46347873 -0.72421462 -0.78788488 -0.98668657 -1.224672 -1.2881418 -1.3641481000000002 -1.4282213 -1.5017669 -1.6480837
-0.72421462 -0.78788488 -0.98668657 -1.224672 -1.2881418 -1.3641481000000002 -1.4282213 -1.5017669 -1.6480837 -1.7058362
-0.78788488 -0.98668657 -1.224672 -1.2881418 -1.3641481000000002 -1.4282213 -1.5017669 -1.6480837 -1.7058362 -1.6867904999999999
-0.98668657 -1.224672 -1.2881418 -1.3641481000000002 -1.4282213 -1.5017669 -1.6480837 -1.7058362 -1.6867904999999999 -1.7057193
-1.224672 -1.2881418 -1.3641481000000002 -1.4282213 -1.5017669 -1.6480837 -1.7058362 -1.6867904999999999 -1.7057193 -1.7776832999999999
-1.2881418 -1.3641481000000002 -1.4282213 -1.5017669 -1.6480837 -1.7058362 -1.6867904999999999 -1.7057193 -1.7776832999999999 -1.8693131999999997
-1.3641481000000002 -1.4282213 -1.5017669 -1.6480837 -1.7058362 -1.6867904999999999 -1.7057193 -1.7776832999999999 -1.8693131999999997 -1.8583761000000003
-1.4282213 -1.5017669 -1.6480837 -1.7058362 -1.6867904999999999 -1.7057193 -1.7776832999999999 -1.8693131999999997 -1.8583761000000003 -1.7377167000000002
-1.5017669 -1.6480837 -1.7058362 -1.6867904999999999 -1.7057193 -1.7776832999999999 -1.8693131999999997 -1.8583761000000003 -1.7377167000000002 -1.7291486
-1.6480837 -1.7058362 -1.6867904999999999 -1.7057193 -1.7776832999999999 -1.8693131999999997 -1.8583761000000003 -1.7377167000000002 -1.7291486 -1.7281054
-1.7058362 -1.6867904999999999 -1.7057193 -1.7776832999999999 -1.8693131999999997 -1.8583761000000003 -1.7377167000000002 -1.7291486 -1.7281054 -1.5460373
-1.6867904999999999 -1.7057193 -1.7776832999999999 -1.8693131999999997 -1.8583761000000003 -1.7377167000000002 -1.7291486 -1.7281054 -1.5460373 -1.4591025
-1.7057193 -1.7776832999999999 -1.8693131999999997 -1.8583761000000003 -1.7377167000000002 -1.7291486 -1.7281054 -1.5460373 -1.4591025 -1.4107518000000001
-1.7776832999999999 -1.8693131999999997 -1.8583761000000003 -1.7377167000000002 -1.7291486 -1.7281054 -1.5460373 -1.4591025 -1.4107518000000001 -1.1634273000000002
-1.8693131999999997 -1.8583761000000003 -1.7377167000000002 -1.7291486 -1.7281054 -1.5460373 -1.4591025 -1.4107518000000001 -1.1634273000000002 -0.90741874
-1.8583761000000003 -1.7377167000000002 -1.7291486 -1.7281054 -1.5460373 -1.4591025 -1.4107518000000001 -1.1634273000000002 -0.90741874 -0.71621062
-1.7377167000000002 -1.7291486 -1.7281054 -1.5460373 -1.4591025 -1.4107518000000001 -1.1634273000000002 -0.90741874 -0.71621062 -0.58176337
-1.7291486 -1.7281054 -1.5460373 -1.4591025 -1.4107518000000001 -1.1634273000000002 -0.90741874 -0.71621062 -0.58176337 -0.44252605
-1.7281054 -1.5460373 -1.4591025 -1.4107518000000001 -1.1634273000000002 -0.90741874 -0.71621062 -0.58176337 -0.44252605 -0.20704617
-1.5460373 -1.4591025 -1.4107518000000001 -1.1634273000000002 -0.90741874 -0.71621062 -0.58176337 -0.44252605 -0.20704617 -0.026462657999999997
-1.4591025 -1.4107518000000001 -1.1634273000000002 -0.90741874 -0.71621062 -0.58176337 -0.44252605 -0.20704617 -0.026462657999999997 0.11703627
-1.4107518000000001 -1.1634273000000002 -0.90741874 -0.71621062 -0.58176337 -0.44252605 -0.20704617 -0.026462657999999997 0.11703627 0.22063662
-1.1634273000000002 -0.90741874 -0.71621062 -0.58176337 -0.44252605 -0.20704617 -0.026462657999999997 0.11703627 0.22063662 0.26431516
-0.90741874 -0.71621062 -0.58176337 -0.44252605 -0.20704617 -0.026462657999999997 0.11703627 0.22063662 0.26431516 0.40505498
-0.71621062 -0.58176337 -0.44252605 -0.20704617 -0.026462657999999997 0.11703627 0.22063662 0.26431516 0.40505498 0.46497434
-0.58176337 -0.44252605 -0.20704617 -0.026462657999999997 0.11703627 0.22063662 0.26431516 0.40505498 0.46497434 0.43416264
-0.44252605 -0.20704617 -0.026462657999999997 0.11703627 0.22063662 0.26431516 0.40505498 0.46497434 0.43416264 0.4868072
-0.20704617 -0.026462657999999997 0.11703627 0.22063662 0.26431516 0.40505498 0.46497434 0.43416264 0.4868072 0.43938773
-0.026462657999999997 0.11703627 0.22063662 0.26431516 0.40505498 0.46497434 0.43416264 0.4868072 0.43938773 0.36961087
0.11703627 0.22063662 0.26431516 0.40505498 0.46497434 0.43416264 0.4868072 0.43938773 0.36961087 0.41314866
0.22063662 0.26431516 0.40505498 0.46497434 0.43416264 0.4868072 0.43938773 0.36961087 0.41314866 0.3978947
0.26431516 0.40505498 0.46497434 0.43416264 0.4868072 0.43938773 0.36961087 0.41314866 0.3978947 0.31876371
0.40505498 0.46497434 0.43416264 0.4868072 0.43938773 0.36961087 0.41314866 0.3978947 0.31876371 0.26371736
0.46497434 0.43416264 0.4868072 0.43938773 0.36961087 0.41314866 0.3978947 0.31876371 0.26371736 0.28886308
0.43416264 0.4868072 0.43938773 0.36961087 0.41314866 0.3978947 0.31876371 0.26371736 0.28886308 0.35824403
0.4868072 0.43938773 0.36961087 0.41314866 0.3978947 0.31876371 0.26371736 0.28886308 0.35824403 0.32673714
0.43938773 0.36961087 0.41314866 0.3978947 0.31876371 0.26371736 0.28886308 0.35824403 0.32673714 0.22921539
0.36961087 0.41314866 0.3978947 0.31876371 0.26371736 0.28886308 0.35824403 0.32673714 0.22921539 0.20441776
0.41314866 0.3978947 0.31876371 0.26371736 0.28886308 0.35824403 0.32673714 0.22921539 0.20441776 0.24438588
0.3978947 0.31876371 0.26371736 0.28886308 0.35824403 0.32673714 0.22921539 0.20441776 0.24438588 0.26263199
0.31876371 0.26371736 0.28886308 0.35824403 0.32673714 0.22921539 0.20441776 0.24438588 0.26263199 0.24388475
0.26371736 0.28886308 0.35824403 0.32673714 0.22921539 0.20441776 0.24438588 0.26263199 0.24388475 0.22750228
0.28886308 0.35824403 0.32673714 0.22921539 0.20441776 0.24438588 0.26263199 0.24388475 0.22750228 0.24578495
0.35824403 0.32673714 0.22921539 0.20441776 0.24438588 0.26263199 0.24388475 0.22750228 0.24578495 0.23295916
0.32673714 0.22921539 0.20441776 0.24438588 0.26263199 0.24388475 0.22750228 0.24578495 0.23295916 0.16461077
0.22921539 0.20441776 0.24438588 0.26263199 0.24388475 0.22750228 0.24578495 0.23295916 0.16461077 0.17153767
0.20441776 0.24438588 0.26263199 0.24388475 0.22750228 0.24578495 0.23295916 0.16461077 0.17153767 0.16669037
0.24438588 0.26263199 0.24388475 0.22750228 0.24578495 0.23295916 0.16461077 0.17153767 0.16669037 0.09914139400000001
0.26263199 0.24388475 0.22750228 0.24578495 0.23295916 0.16461077 0.17153767 0.16669037 0.09914139400000001 0.14693663
0.24388475 0.22750228 0.24578495 0.23295916 0.16461077 0.17153767 0.16669037 0.09914139400000001 0.14693663 0.13341444
0.22750228 0.24578495 0.23295916 0.16461077 0.17153767 0.16669037 0.09914139400000001 0.14693663 0.13341444 0.12529443
0.24578495 0.23295916 0.16461077 0.17153767 0.16669037 0.09914139400000001 0.14693663 0.13341444 0.12529443 0.20271343
0.23295916 0.16461077 0.17153767 0.16669037 0.09914139400000001 0.14693663 0.13341444 0.12529443 0.20271343 0.18640913
0.16461077 0.17153767 0.16669037 0.09914139400000001 0.14693663 0.13341444 0.12529443 0.20271343 0.18640913 0.41900645
0.17153767 0.16669037 0.09914139400000001 0.14693663 0.13341444 0.12529443 0.20271343 0.18640913 0.41900645 0.72388755
0.16669037 0.09914139400000001 0.14693663 0.13341444 0.12529443 0.20271343 0.18640913 0.41900645 0.72388755 1.3239469
0.09914139400000001 0.14693663 0.13341444 0.12529443 0.20271343 0.18640913 0.41900645 0.72388755 1.3239469 2.1364876
0.14693663 0.13341444 0.12529443 0.20271343 0.18640913 0.41900645 0.72388755 1.3239469 2.1364876 1.7465965
0.13341444 0.12529443 0.20271343 0.18640913 0.41900645 0.72388755 1.3239469 2.1364876 1.7465965 1.4702205
0.12529443 0.20271343 0.18640913 0.41900645 0.72388755 1.3239469 2.1364876 1.7465965 1.4702205 1.8935123
0.20271343 0.18640913 0.41900645 0.72388755 1.3239469 2.1364876 1.7465965 1.4702205 1.8935123 1.2569493
0.18640913 0.41900645 0.72388755 1.3239469 2.1364876 1.7465965 1.4702205 1.8935123 1.2569493 0.80040658
0.41900645 0.72388755 1.3239469 2.1364876 1.7465965 1.4702205 1.8935123 1.2569493 0.80040658 0.73153981
