0.58597594 1.1371795 1.2907909 1.33595 1.2572291000000002 0.0056128186 -0.8532002000000001 -0.85408508 -0.95444804 -0.74570298
1.1371795 1.2907909 1.33595 1.2572291000000002 0.0056128186 -0.8532002000000001 -0.85408508 -0.95444804 -0.74570298 -0.90664719
1.2907909 1.33595 1.2572291000000002 0.0056128186 -0.8532002000000001 -0.85408508 -0.95444804 -0.74570298 -0.90664719 -1.1693084999999999
1.33595 1.2572291000000002 0.0056128186 -0.8532002000000001 -0.85408508 -0.95444804 -0.74570298 -0.90664719 -1.1693084999999999 -1.2278135000000001
1.2572291000000002 0.0056128186 -0.8532002000000001 -0.85408508 -0.95444804 -0.74570298 -0.90664719 -1.1693084999999999 -1.2278135000000001 -1.4456712999999999
0.0056128186 -0.8532002000000001 -0.85408508 -0.95444804 -0.74570298 -0.90664719 -1.1693084999999999 -1.2278135000000001 -1.4456712999999999 -1.3641393999999998
-0.8532002000000001 -0.85408508 -0.95444804 -0.74570298 -0.90664719 -1.1693084999999999 -1.2278135000000001 -1.4456712999999999 -1.3641393999999998 -1.4457378
-0.85408508 -0.95444804 -0.74570298 -0.90664719 -1.1693084999999999 -1.2278135000000001 -1.4456712999999999 -1.3641393999999998 -1.4457378 -1.6622698
-0.95444804 -0.74570298 -0.90664719 -1.1693084999999999 -1.2278135000000001 -1.4456712999999999 -1.3641393999999998 -1.4457378 -1.6622698 -1.5050652
-0.74570298 -0.90664719 -1.1693084999999999 -1.2278135000000001 -1.4456712999999999 -1.3641393999999998 -1.4457378 -1.6622698 -1.5050652 -1.676811
-0.90664719 -1.1693084999999999 -1.2278135000000001 -1.4456712999999999 -1.3641393999999998 -1.4457378 -1.6622698 -1.5050652 -1.676811 -1.8241034
-1.1693084999999999 -1.2278135000000001 -1.4456712999999999 -1.3641393999999998 -1.4457378 -1.6622698 -1.5050652 -1.676811 -1.8241034 -1.6514071
-1.2278135000000001 -1.4456712999999999 -1.3641393999999998 -1.4457378 -1.6622698 -1.5050652 -1.676811 -1.8241034 -1.6514071 -1.8307529999999999
-1.4456712999999999 -1.3641393999999998 -1.4457378 -1.6622698 -1.5050652 -1.676811 -1.8241034 -1.6514071 -1.8307529999999999 -1.6389426999999999
-1.3641393999999998 -1.4457378 -1.6622698 -1.5050652 -1.676811 -1.8241034 -1.6514071 -1.8307529999999999 -1.6389426999999999 -1.712566
-1.4457378 -1.6622698 -1.5050652 -1.676811 -1.8241034 -1.6514071 -1.8307529999999999 -1.6389426999999999 -1.712566 -1.9989974
-1.6622698 -1.5050652 -1.676811 -1.8241034 -1.6514071 -1.8307529999999999 -1.6389426999999999 -1.712566 -1.9989974 -1.7098133999999998
-1.5050652 -1.676811 -1.8241034 -1.6514071 -1.8307529999999999 -1.6389426999999999 -1.712566 -1.9989974 -1.7098133999999998 -1.6747662
-1.676811 -1.8241034 -1.6514071 -1.8307529999999999 -1.6389426999999999 -1.712566 -1.9989974 -1.7098133999999998 -1.6747662 -1.2410326999999999
-1.8241034 -1.6514071 -1.8307529999999999 -1.6389426999999999 -1.712566 -1.9989974 -1.7098133999999998 -1.6747662 -1.2410326999999999 -0.94469051
-1.6514071 -1.8307529999999999 -1.6389426999999999 -1.712566 -1.9989974 -1.7098133999999998 -1.6747662 -1.2410326999999999 -0.94469051 -0.98619023
-1.8307529999999999 -1.6389426999999999 -1.712566 -1.9989974 -1.7098133999999998 -1.6747662 -1.2410326999999999 -0.94469051 -0.98619023 -0.68197326
-1.6389426999999999 -1.712566 -1.9989974 -1.7098133999999998 -1.6747662 -1.2410326999999999 -0.94469051 -0.98619023 -0.68197326 -0.18182055
-1.712566 -1.9989974 -1.7098133999999998 -1.6747662 -1.2410326999999999 -0.94469051 -0.98619023 -0.68197326 -0.18182055 0.041145017
-1.9989974 -1.7098133999999998 -1.6747662 -1.2410326999999999 -0.94469051 -0.98619023 -0.68197326 -0.18182055 0.041145017 0.26965257
-1.7098133999999998 -1.6747662 -1.2410326999999999 -0.94469051 -0.98619023 -0.68197326 -0.18182055 0.041145017 0.26965257 0.48887294
-1.6747662 -1.2410326999999999 -0.94469051 -0.98619023 -0.68197326 -0.18182055 0.041145017 0.26965257 0.48887294 0.50861388
-1.2410326999999999 -0.94469051 -0.98619023 -0.68197326 -0.18182055 0.041145017 0.26965257 0.48887294 0.50861388 0.81440337
-0.94469051 -0.98619023 -0.68197326 -0.18182055 0.041145017 0.26965257 0.48887294 0.50861388 0.81440337 0.9045377
-0.98619023 -0.68197326 -0.18182055 0.041145017 0.26965257 0.48887294 0.50861388 0.81440337 0.9045377 0.84133469
-0.68197326 -0.18182055 0.041145017 0.26965257 0.48887294 0.50861388 0.81440337 0.9045377 0.84133469 0.99911654
-0.18182055 0.041145017 0.26965257 0.48887294 0.50861388 0.81440337 0.9045377 0.84133469 0.99911654 0.70654447
0.041145017 0.26965257 0.48887294 0.50861388 0.81440337 0.9045377 0.84133469 0.99911654 0.70654447 0.64984516
0.26965257 0.48887294 0.50861388 0.81440337 0.9045377 0.84133469 0.99911654 0.70654447 0.64984516 0.78087253
0.48887294 0.50861388 0.81440337 0.9045377 0.84133469 0.99911654 0.70654447 0.64984516 0.78087253 0.81487211
0.50861388 0.81440337 0.9045377 0.84133469 0.99911654 0.70654447 0.64984516 0.78087253 0.81487211 0.87359903
0.81440337 0.9045377 0.84133469 0.99911654 0.70654447 0.64984516 0.78087253 0.81487211 0.87359903 0.23948804
0.9045377 0.84133469 0.99911654 0.70654447 0.64984516 0.78087253 0.81487211 0.87359903 0.23948804 0.97886007
0.84133469 0.99911654 0.70654447 0.64984516 0.78087253 0.81487211 0.87359903 0.23948804 0.97886007 0.84852437
0.99911654 0.70654447 0.64984516 0.78087253 0.81487211 0.87359903 0.23948804 0.97886007 0.84852437 0.27915647
0.70654447 0.64984516 0.78087253 0.81487211 0.87359903 0.23948804 0.97886007 0.84852437 0.27915647 0.46947185
0.64984516 0.78087253 0.81487211 0.87359903 0.23948804 0.97886007 0.84852437 0.27915647 0.46947185 0.55390315
0.78087253 0.81487211 0.87359903 0.23948804 0.97886007 0.84852437 0.27915647 0.46947185 0.55390315 0.74572117
0.81487211 0.87359903 0.23948804 0.97886007 0.84852437 0.27915647 0.46947185 0.55390315 0.74572117 0.54018362
0.87359903 0.23948804 0.97886007 0.84852437 0.27915647 0.46947185 0.55390315 0.74572117 0.54018362 0.66707285
0.23948804 0.97886007 0.84852437 0.27915647 0.46947185 0.55390315 0.74572117 0.54018362 0.66707285 0.43675462
0.97886007 0.84852437 0.27915647 0.46947185 0.55390315 0.74572117 0.54018362 0.66707285 0.43675462 0.62178002
0.84852437 0.27915647 0.46947185 0.55390315 0.74572117 0.54018362 0.66707285 0.43675462 0.62178002 0.44373617
0.27915647 0.46947185 0.55390315 0.74572117 0.54018362 0.66707285 0.43675462 0.62178002 0.44373617 0.3734015
0.46947185 0.55390315 0.74572117 0.54018362 0.66707285 0.43675462 0.62178002 0.44373617 0.3734015 0.47644065
0.55390315 0.74572117 0.54018362 0.66707285 0.43675462 0.62178002 0.44373617 0.3734015 0.47644065 0.38699714
0.74572117 0.54018362 0.66707285 0.43675462 0.62178002 0.44373617 0.3734015 0.47644065 0.38699714 0.77528263
0.54018362 0.66707285 0.43675462 0.62178002 0.44373617 0.3734015 0.47644065 0.38699714 0.77528263 0.37837448
0.66707285 0.43675462 0.62178002 0.44373617 0.3734015 0.47644065 0.38699714 0.77528263 0.37837448 0.1361239
0.43675462 0.62178002 0.44373617 0.3734015 0.47644065 0.38699714 0.77528263 0.37837448 0.1361239 0.19337036
0.62178002 0.44373617 0.3734015 0.47644065 0.38699714 0.77528263 0.37837448 0.1361239 0.19337036 0.21531201
0.44373617 0.3734015 0.47644065 0.38699714 0.77528263 0.37837448 0.1361239 0.19337036 0.21531201 0.68831277
0.3734015 0.47644065 0.38699714 0.77528263 0.37837448 0.1361239 0.19337036 0.21531201 0.68831277 0.86513661
0.47644065 0.38699714 0.77528263 0.37837448 0.1361239 0.19337036 0.21531201 0.68831277 0.86513661 1.1040074
0.38699714 0.77528263 0.37837448 0.1361239 0.19337036 0.21531201 0.68831277 0.86513661 1.1040074 0.53105904
0.77528263 0.37837448 0.1361239 0.19337036 0.21531201 0.68831277 0.86513661 1.1040074 0.53105904 0.20986348
0.37837448 0.1361239 0.19337036 0.21531201 0.68831277 0.86513661 1.1040074 0.53105904 0.20986348 0.47040482
0.1361239 0.19337036 0.21531201 0.68831277 0.86513661 1.1040074 0.53105904 0.20986348 0.47040482 0.13428334
0.19337036 0.21531201 0.68831277 0.86513661 1.1040074 0.53105904 0.20986348 0.47040482 0.13428334 0.051553549000000004
0.21531201 0.68831277 0.86513661 1.1040074 0.53105904 0.20986348 0.47040482 0.13428334 0.051553549000000004 0.50461939
0.68831277 0.86513661 1.1040074 0.53105904 0.20986348 0.47040482 0.13428334 0.051553549000000004 0.50461939 -0.10774779
0.86513661 1.1040074 0.53105904 0.20986348 0.47040482 0.13428334 0.051553549000000004 0.50461939 -0.10774779 -0.28093072
1.1040074 0.53105904 0.20986348 0.47040482 0.13428334 0.051553549000000004 0.50461939 -0.10774779 -0.28093072 -0.09797888
0.53105904 0.20986348 0.47040482 0.13428334 0.051553549000000004 0.50461939 -0.10774779 -0.28093072 -0.09797888 -0.0090136989
0.20986348 0.47040482 0.13428334 0.051553549000000004 0.50461939 -0.10774779 -0.28093072 -0.09797888 -0.0090136989 0.083350877
0.47040482 0.13428334 0.051553549000000004 0.50461939 -0.10774779 -0.28093072 -0.09797888 -0.0090136989 0.083350877 -0.27151162
0.13428334 0.051553549000000004 0.50461939 -0.10774779 -0.28093072 -0.09797888 -0.0090136989 0.083350877 -0.27151162 -0.1728883
0.051553549000000004 0.50461939 -0.10774779 -0.28093072 -0.09797888 -0.0090136989 0.083350877 -0.27151162 -0.1728883 -0.15630351
0.50461939 -0.10774779 -0.28093072 -0.09797888 -0.0090136989 0.083350877 -0.27151162 -0.1728883 -0.15630351 -0.057780525
-0.10774779 -0.28093072 -0.09797888 -0.0090136989 0.083350877 -0.27151162 -0.1728883 -0.15630351 -0.057780525 -0.19680778
-0.28093072 -0.09797888 -0.0090136989 0.083350877 -0.27151162 -0.1728883 -0.15630351 -0.057780525 -0.19680778 -0.35654539
-0.09797888 -0.0090136989 0.083350877 -0.27151162 -0.1728883 -0.15630351 -0.057780525 -0.19680778 -0.35654539 -0.24017552
-0.0090136989 0.083350877 -0.27151162 -0.1728883 -0.15630351 -0.057780525 -0.19680778 -0.35654539 -0.24017552 -0.028155517999999997
0.083350877 -0.27151162 -0.1728883 -0.15630351 -0.057780525 -0.19680778 -0.35654539 -0.24017552 -0.028155517999999997 -0.25056284
-0.27151162 -0.1728883 -0.15630351 -0.057780525 -0.19680778 -0.35654539 -0.24017552 -0.028155517999999997 -0.25056284 0.50802148
-0.1728883 -0.15630351 -0.057780525 -0.19680778 -0.35654539 -0.24017552 -0.028155517999999997 -0.25056284 0.50802148 1.3931381
-0.15630351 -0.057780525 -0.19680778 -0.35654539 -0.24017552 -0.028155517999999997 -0.25056284 0.50802148 1.3931381 2.4379164
-0.057780525 -0.19680778 -0.35654539 -0.24017552 -0.028155517999999997 -0.25056284 0.50802148 1.3931381 2.4379164 2.9100638
-0.19680778 -0.35654539 -0.24017552 -0.028155517999999997 -0.25056284 0.50802148 1.3931381 2.4379164 2.9100638 1.9735478
-0.35654539 -0.24017552 -0.028155517999999997 -0.25056284 0.50802148 1.3931381 2.4379164 2.9100638 1.9735478 -0.048711772
-0.24017552 -0.028155517999999997 -0.25056284 0.50802148 1.3931381 2.4379164 2.9100638 1.9735478 -0.048711772 -1.5272921
-0.028155517999999997 -0.25056284 0.50802148 1.3931381 2.4379164 2.9100638 1.9735478 -0.048711772 -1.5272921 -0.24101953
