0.99970742 2.7911688 3.6556782999999995 2.4709798 1.4594185 0.33317464 0.5504913 1.4679113000000001 1.2131432 1.0813722
2.7911688 3.6556782999999995 2.4709798 1.4594185 0.33317464 0.5504913 1.4679113000000001 1.2131432 1.0813722 0.99656008
3.6556782999999995 2.4709798 1.4594185 0.33317464 0.5504913 1.4679113000000001 1.2131432 1.0813722 0.99656008 0.46236553
2.4709798 1.4594185 0.33317464 0.5504913 1.4679113000000001 1.2131432 1.0813722 0.99656008 0.46236553 -0.36150828
1.4594185 0.33317464 0.5504913 1.4679113000000001 1.2131432 1.0813722 0.99656008 0.46236553 -0.36150828 -0.50390667
0.33317464 0.5504913 1.4679113000000001 1.2131432 1.0813722 0.99656008 0.46236553 -0.36150828 -0.50390667 -0.57442722
0.5504913 1.4679113000000001 1.2131432 1.0813722 0.99656008 0.46236553 -0.36150828 -0.50390667 -0.57442722 -0.62491742
1.4679113000000001 1.2131432 1.0813722 0.99656008 0.46236553 -0.36150828 -0.50390667 -0.57442722 -0.62491742 -0.7127256
1.2131432 1.0813722 0.99656008 0.46236553 -0.36150828 -0.50390667 -0.57442722 -0.62491742 -0.7127256 -0.87725194
1.0813722 0.99656008 0.46236553 -0.36150828 -0.50390667 -0.57442722 -0.62491742 -0.7127256 -0.87725194 -0.8631120000000001
0.99656008 0.46236553 -0.36150828 -0.50390667 -0.57442722 -0.62491742 -0.7127256 -0.87725194 -0.8631120000000001 -0.94895439
0.46236553 -0.36150828 -0.50390667 -0.57442722 -0.62491742 -0.7127256 -0.87725194 -0.8631120000000001 -0.94895439 -1.0918879
-0.36150828 -0.50390667 -0.57442722 -0.62491742 -0.7127256 -0.87725194 -0.8631120000000001 -0.94895439 -1.0918879 -1.1544232
-0.50390667 -0.57442722 -0.62491742 -0.7127256 -0.87725194 -0.8631120000000001 -0.94895439 -1.0918879 -1.1544232 -1.1557447
-0.57442722 -0.62491742 -0.7127256 -0.87725194 -0.8631120000000001 -0.94895439 -1.0918879 -1.1544232 -1.1557447 -1.2367089
-0.62491742 -0.7127256 -0.87725194 -0.8631120000000001 -0.94895439 -1.0918879 -1.1544232 -1.1557447 -1.2367089 -1.4393446
-0.7127256 -0.87725194 -0.8631120000000001 -0.94895439 -1.0918879 -1.1544232 -1.1557447 -1.2367089 -1.4393446 -1.5328602
-0.87725194 -0.8631120000000001 -0.94895439 -1.0918879 -1.1544232 -1.1557447 -1.2367089 -1.4393446 -1.5328602 -1.5505765
-0.8631120000000001 -0.94895439 -1.0918879 -1.1544232 -1.1557447 -1.2367089 -1.4393446 -1.5328602 -1.5505765 -1.697434
-0.94895439 -1.0918879 -1.1544232 -1.1557447 -1.2367089 -1.4393446 -1.5328602 -1.5505765 -1.697434 -1.9290224999999999
-1.0918879 -1.1544232 -1.1557447 -1.2367089 -1.4393446 -1.5328602 -1.5505765 -1.697434 -1.9290224999999999 -1.8858667000000002
-1.1544232 -1.1557447 -1.2367089 -1.4393446 -1.5328602 -1.5505765 -1.697434 -1.9290224999999999 -1.8858667000000002 -1.978862
-1.1557447 -1.2367089 -1.4393446 -1.5328602 -1.5505765 -1.697434 -1.9290224999999999 -1.8858667000000002 -1.978862 -1.9854938000000002
-1.2367089 -1.4393446 -1.5328602 -1.5505765 -1.697434 -1.9290224999999999 -1.8858667000000002 -1.978862 -1.9854938000000002 -1.9680557
-1.4393446 -1.5328602 -1.5505765 -1.697434 -1.9290224999999999 -1.8858667000000002 -1.978862 -1.9854938000000002 -1.9680557 -1.8771463
-1.5328602 -1.5505765 -1.697434 -1.9290224999999999 -1.8858667000000002 -1.978862 -1.9854938000000002 -1.9680557 -1.8771463 -1.6102913
-1.5505765 -1.697434 -1.9290224999999999 -1.8858667000000002 -1.978862 -1.9854938000000002 -1.9680557 -1.8771463 -1.6102913 -1.4227857
-1.697434 -1.9290224999999999 -1.8858667000000002 -1.978862 -1.9854938000000002 -1.9680557 -1.8771463 -1.6102913 -1.4227857 -1.0420614
-1.9290224999999999 -1.8858667000000002 -1.978862 -1.9854938000000002 -1.9680557 -1.8771463 -1.6102913 -1.4227857 -1.0420614 -0.65191227
-1.8858667000000002 -1.978862 -1.9854938000000002 -1.9680557 -1.8771463 -1.6102913 -1.4227857 -1.0420614 -0.65191227 -0.38674254
-1.978862 -1.9854938000000002 -1.9680557 -1.8771463 -1.6102913 -1.4227857 -1.0420614 -0.65191227 -0.38674254 -0.024739535
-1.9854938000000002 -1.9680557 -1.8771463 -1.6102913 -1.4227857 -1.0420614 -0.65191227 -0.38674254 -0.024739535 0.34190604
-1.9680557 -1.8771463 -1.6102913 -1.4227857 -1.0420614 -0.65191227 -0.38674254 -0.024739535 0.34190604 0.53080641
-1.8771463 -1.6102913 -1.4227857 -1.0420614 -0.65191227 -0.38674254 -0.024739535 0.34190604 0.53080641 0.52389908
-1.6102913 -1.4227857 -1.0420614 -0.65191227 -0.38674254 -0.024739535 0.34190604 0.53080641 0.52389908 0.71934155
-1.4227857 -1.0420614 -0.65191227 -0.38674254 -0.024739535 0.34190604 0.53080641 0.52389908 0.71934155 0.83719421
-1.0420614 -0.65191227 -0.38674254 -0.024739535 0.34190604 0.53080641 0.52389908 0.71934155 0.83719421 0.74033281
-0.65191227 -0.38674254 -0.024739535 0.34190604 0.53080641 0.52389908 0.71934155 0.83719421 0.74033281 0.75741592
-0.38674254 -0.024739535 0.34190604 0.53080641 0.52389908 0.71934155 0.83719421 0.74033281 0.75741592 0.70839631
-0.024739535 0.34190604 0.53080641 0.52389908 0.71934155 0.83719421 0.74033281 0.75741592 0.70839631 0.67710308
0.34190604 0.53080641 0.52389908 0.71934155 0.83719421 0.74033281 0.75741592 0.70839631 0.67710308 0.5996245
0.53080641 0.52389908 0.71934155 0.83719421 0.74033281 0.75741592 0.70839631 0.67710308 0.5996245 0.52901871
0.52389908 0.71934155 0.83719421 0.74033281 0.75741592 0.70839631 0.67710308 0.5996245 0.52901871 0.61907775
0.71934155 0.83719421 0.74033281 0.75741592 0.70839631 0.67710308 0.5996245 0.52901871 0.61907775 0.5918085999999999
0.83719421 0.74033281 0.75741592 0.70839631 0.67710308 0.5996245 0.52901871 0.61907775 0.5918085999999999 0.50106959
0.74033281 0.75741592 0.70839631 0.67710308 0.5996245 0.52901871 0.61907775 0.5918085999999999 0.50106959 0.51123953
0.75741592 0.70839631 0.67710308 0.5996245 0.52901871 0.61907775 0.5918085999999999 0.50106959 0.51123953 0.55878267
0.70839631 0.67710308 0.5996245 0.52901871 0.61907775 0.5918085999999999 0.50106959 0.51123953 0.55878267 0.44073898
0.67710308 0.5996245 0.52901871 0.61907775 0.5918085999999999 0.50106959 0.51123953 0.55878267 0.44073898 0.48503107
0.5996245 0.52901871 0.61907775 0.5918085999999999 0.50106959 0.51123953 0.55878267 0.44073898 0.48503107 0.50189452
0.52901871 0.61907775 0.5918085999999999 0.50106959 0.51123953 0.55878267 0.44073898 0.48503107 0.50189452 0.46095598
0.61907775 0.5918085999999999 0.50106959 0.51123953 0.55878267 0.44073898 0.48503107 0.50189452 0.46095598 0.39988058
0.5918085999999999 0.50106959 0.51123953 0.55878267 0.44073898 0.48503107 0.50189452 0.46095598 0.39988058 0.40444837
0.50106959 0.51123953 0.55878267 0.44073898 0.48503107 0.50189452 0.46095598 0.39988058 0.40444837 0.40629134
0.51123953 0.55878267 0.44073898 0.48503107 0.50189452 0.46095598 0.39988058 0.40444837 0.40629134 0.37917143
0.55878267 0.44073898 0.48503107 0.50189452 0.46095598 0.39988058 0.40444837 0.40629134 0.37917143 0.32234146
0.44073898 0.48503107 0.50189452 0.46095598 0.39988058 0.40444837 0.40629134 0.37917143 0.32234146 0.28236162
0.48503107 0.50189452 0.46095598 0.39988058 0.40444837 0.40629134 0.37917143 0.32234146 0.28236162 0.35485281
0.50189452 0.46095598 0.39988058 0.40444837 0.40629134 0.37917143 0.32234146 0.28236162 0.35485281 0.21421836
0.46095598 0.39988058 0.40444837 0.40629134 0.37917143 0.32234146 0.28236162 0.35485281 0.21421836 0.18782819
0.39988058 0.40444837 0.40629134 0.37917143 0.32234146 0.28236162 0.35485281 0.21421836 0.18782819 0.29084646
0.40444837 0.40629134 0.37917143 0.32234146 0.28236162 0.35485281 0.21421836 0.18782819 0.29084646 0.16447839
0.40629134 0.37917143 0.32234146 0.28236162 0.35485281 0.21421836 0.18782819 0.29084646 0.16447839 0.10950107
0.37917143 0.32234146 0.28236162 0.35485281 0.21421836 0.18782819 0.29084646 0.16447839 0.10950107 0.15207041
0.32234146 0.28236162 0.35485281 0.21421836 0.18782819 0.29084646 0.16447839 0.10950107 0.15207041 0.19934179999999999
0.28236162 0.35485281 0.21421836 0.18782819 0.29084646 0.16447839 0.10950107 0.15207041 0.19934179999999999 0.29967751
0.35485281 0.21421836 0.18782819 0.29084646 0.16447839 0.10950107 0.15207041 0.19934179999999999 0.29967751 0.48495387
0.21421836 0.18782819 0.29084646 0.16447839 0.10950107 0.15207041 0.19934179999999999 0.29967751 0.48495387 0.60300949
0.18782819 0.29084646 0.16447839 0.10950107 0.15207041 0.19934179999999999 0.29967751 0.48495387 0.60300949 0.6067196
0.29084646 0.16447839 0.10950107 0.15207041 0.19934179999999999 0.29967751 0.48495387 0.60300949 0.6067196 0.43017987
0.16447839 0.10950107 0.15207041 0.19934179999999999 0.29967751 0.48495387 0.60300949 0.6067196 0.43017987 0.23113939
0.10950107 0.15207041 0.19934179999999999 0.29967751 0.48495387 0.60300949 0.6067196 0.43017987 0.23113939 0.22701451
0.15207041 0.19934179999999999 0.29967751 0.48495387 0.60300949 0.6067196 0.43017987 0.23113939 0.22701451 0.051546402000000005
0.19934179999999999 0.29967751 0.48495387 0.60300949 0.6067196 0.43017987 0.23113939 0.22701451 0.051546402000000005 -0.10722707
0.29967751 0.48495387 0.60300949 0.6067196 0.43017987 0.23113939 0.22701451 0.051546402000000005 -0.10722707 -0.09565
0.48495387 0.60300949 0.6067196 0.43017987 0.23113939 0.22701451 0.051546402000000005 -0.10722707 -0.09565 -0.15719648
0.60300949 0.6067196 0.43017987 0.23113939 0.22701451 0.051546402000000005 -0.10722707 -0.09565 -0.15719648 -0.19614914
0.6067196 0.43017987 0.23113939 0.22701451 0.051546402000000005 -0.10722707 -0.09565 -0.15719648 -0.19614914 -0.11020546
0.43017987 0.23113939 0.22701451 0.051546402000000005 -0.10722707 -0.09565 -0.15719648 -0.19614914 -0.11020546 -0.19871606
0.23113939 0.22701451 0.051546402000000005 -0.10722707 -0.09565 -0.15719648 -0.19614914 -0.11020546 -0.19871606 -0.21874786
0.22701451 0.051546402000000005 -0.10722707 -0.09565 -0.15719648 -0.19614914 -0.11020546 -0.19871606 -0.21874786 -0.22577521
0.051546402000000005 -0.10722707 -0.09565 -0.15719648 -0.19614914 -0.11020546 -0.19871606 -0.21874786 -0.22577521 -0.28857256
-0.10722707 -0.09565 -0.15719648 -0.19614914 -0.11020546 -0.19871606 -0.21874786 -0.22577521 -0.28857256 -0.1600383
-0.09565 -0.15719648 -0.19614914 -0.11020546 -0.19871606 -0.21874786 -0.22577521 -0.28857256 -0.1600383 -0.24255383
-0.15719648 -0.19614914 -0.11020546 -0.19871606 -0.21874786 -0.22577521 -0.28857256 -0.1600383 -0.24255383 -0.31070396
-0.19614914 -0.11020546 -0.19871606 -0.21874786 -0.22577521 -0.28857256 -0.1600383 -0.24255383 -0.31070396 -0.26483934
-0.11020546 -0.19871606 -0.21874786 -0.22577521 -0.28857256 -0.1600383 -0.24255383 -0.31070396 -0.26483934 -0.25434277
