0.64865752 0.75202595 2.6362312 3.4557156000000004 2.1181574 0.52062024 -0.18862656 0.78081841 0.93377469 0.70140202
0.75202595 2.6362312 3.4557156000000004 2.1181574 0.52062024 -0.18862656 0.78081841 0.93377469 0.70140202 1.006133
2.6362312 3.4557156000000004 2.1181574 0.52062024 -0.18862656 0.78081841 0.93377469 0.70140202 1.006133 0.39578379
3.4557156000000004 2.1181574 0.52062024 -0.18862656 0.78081841 0.93377469 0.70140202 1.006133 0.39578379 -0.36970304
2.1181574 0.52062024 -0.18862656 0.78081841 0.93377469 0.70140202 1.006133 0.39578379 -0.36970304 -0.73820206
0.52062024 -0.18862656 0.78081841 0.93377469 0.70140202 1.006133 0.39578379 -0.36970304 -0.73820206 -0.72908415
-0.18862656 0.78081841 0.93377469 0.70140202 1.006133 0.39578379 -0.36970304 -0.73820206 -0.72908415 -0.90693968
0.78081841 0.93377469 0.70140202 1.006133 0.39578379 -0.36970304 -0.73820206 -0.72908415 -0.90693968 -0.87096235
0.93377469 0.70140202 1.006133 0.39578379 -0.36970304 -0.73820206 -0.72908415 -0.90693968 -0.87096235 -1.060217
0.70140202 1.006133 0.39578379 -0.36970304 -0.73820206 -0.72908415 -0.90693968 -0.87096235 -1.060217 -1.1979583999999999
1.006133 0.39578379 -0.36970304 -0.73820206 -0.72908415 -0.90693968 -0.87096235 -1.060217 -1.1979583999999999 -0.98160194
0.39578379 -0.36970304 -0.73820206 -0.72908415 -0.90693968 -0.87096235 -1.060217 -1.1979583999999999 -0.98160194 -1.2724971999999999
-0.36970304 -0.73820206 -0.72908415 -0.90693968 -0.87096235 -1.060217 -1.1979583999999999 -0.98160194 -1.2724971999999999 -1.2873801999999999
-0.73820206 -0.72908415 -0.90693968 -0.87096235 -1.060217 -1.1979583999999999 -0.98160194 -1.2724971999999999 -1.2873801999999999 -1.2766978999999998
-0.72908415 -0.90693968 -0.87096235 -1.060217 -1.1979583999999999 -0.98160194 -1.2724971999999999 -1.2873801999999999 -1.2766978999999998 -1.5397017
-0.90693968 -0.87096235 -1.060217 -1.1979583999999999 -0.98160194 -1.2724971999999999 -1.2873801999999999 -1.2766978999999998 -1.5397017 -1.3466101000000001
-0.87096235 -1.060217 -1.1979583999999999 -0.98160194 -1.2724971999999999 -1.2873801999999999 -1.2766978999999998 -1.5397017 -1.3466101000000001 -1.5352169
-1.060217 -1.1979583999999999 -0.98160194 -1.2724971999999999 -1.2873801999999999 -1.2766978999999998 -1.5397017 -1.3466101000000001 -1.5352169 -1.7634183999999997
-1.1979583999999999 -0.98160194 -1.2724971999999999 -1.2873801999999999 -1.2766978999999998 -1.5397017 -1.3466101000000001 -1.5352169 -1.7634183999999997 -1.6888208999999998
-0.98160194 -1.2724971999999999 -1.2873801999999999 -1.2766978999999998 -1.5397017 -1.3466101000000001 -1.5352169 -1.7634183999999997 -1.6888208999999998 -1.8093685000000002
-1.2724971999999999 -1.2873801999999999 -1.2766978999999998 -1.5397017 -1.3466101000000001 -1.5352169 -1.7634183999999997 -1.6888208999999998 -1.8093685000000002 -1.8638914
-1.2873801999999999 -1.2766978999999998 -1.5397017 -1.3466101000000001 -1.5352169 -1.7634183999999997 -1.6888208999999998 -1.8093685000000002 -1.8638914 -1.9944534
-1.2766978999999998 -1.5397017 -1.3466101000000001 -1.5352169 -1.7634183999999997 -1.6888208999999998 -1.8093685000000002 -1.8638914 -1.9944534 -1.8898101999999999
-1.5397017 -1.3466101000000001 -1.5352169 -1.7634183999999997 -1.6888208999999998 -1.8093685000000002 -1.8638914 -1.9944534 -1.8898101999999999 -1.9257131999999997
-1.3466101000000001 -1.5352169 -1.7634183999999997 -1.6888208999999998 -1.8093685000000002 -1.8638914 -1.9944534 -1.8898101999999999 -1.9257131999999997 -1.8336293000000001
-1.5352169 -1.7634183999999997 -1.6888208999999998 -1.8093685000000002 -1.8638914 -1.9944534 -1.8898101999999999 -1.9257131999999997 -1.8336293000000001 -1.6618297999999998
-1.7634183999999997 -1.6888208999999998 -1.8093685000000002 -1.8638914 -1.9944534 -1.8898101999999999 -1.9257131999999997 -1.8336293000000001 -1.6618297999999998 -1.3425103999999999
-1.6888208999999998 -1.8093685000000002 -1.8638914 -1.9944534 -1.8898101999999999 -1.9257131999999997 -1.8336293000000001 -1.6618297999999998 -1.3425103999999999 -1.0113174
-1.8093685000000002 -1.8638914 -1.9944534 -1.8898101999999999 -1.9257131999999997 -1.8336293000000001 -1.6618297999999998 -1.3425103999999999 -1.0113174 -0.67271665
-1.8638914 -1.9944534 -1.8898101999999999 -1.9257131999999997 -1.8336293000000001 -1.6618297999999998 -1.3425103999999999 -1.0113174 -0.67271665 -0.21615671
-1.9944534 -1.8898101999999999 -1.9257131999999997 -1.8336293000000001 -1.6618297999999998 -1.3425103999999999 -1.0113174 -0.67271665 -0.21615671 0.052871572
-1.8898101999999999 -1.9257131999999997 -1.8336293000000001 -1.6618297999999998 -1.3425103999999999 -1.0113174 -0.67271665 -0.21615671 0.052871572 0.56208966
-1.9257131999999997 -1.8336293000000001 -1.6618297999999998 -1.3425103999999999 -1.0113174 -0.67271665 -0.21615671 0.052871572 0.56208966 0.70087985
-1.8336293000000001 -1.6618297999999998 -1.3425103999999999 -1.0113174 -0.67271665 -0.21615671 0.052871572 0.56208966 0.70087985 0.94692677
-1.6618297999999998 -1.3425103999999999 -1.0113174 -0.67271665 -0.21615671 0.052871572 0.56208966 0.70087985 0.94692677 1.0049973
-1.3425103999999999 -1.0113174 -0.67271665 -0.21615671 0.052871572 0.56208966 0.70087985 0.94692677 1.0049973 1.0275423000000001
-1.0113174 -0.67271665 -0.21615671 0.052871572 0.56208966 0.70087985 0.94692677 1.0049973 1.0275423000000001 1.1916636
-0.67271665 -0.21615671 0.052871572 0.56208966 0.70087985 0.94692677 1.0049973 1.0275423000000001 1.1916636 0.96885533
-0.21615671 0.052871572 0.56208966 0.70087985 0.94692677 1.0049973 1.0275423000000001 1.1916636 0.96885533 0.84461754
0.052871572 0.56208966 0.70087985 0.94692677 1.0049973 1.0275423000000001 1.1916636 0.96885533 0.84461754 0.77949209
0.56208966 0.70087985 0.94692677 1.0049973 1.0275423000000001 1.1916636 0.96885533 0.84461754 0.77949209 0.743938
0.70087985 0.94692677 1.0049973 1.0275423000000001 1.1916636 0.96885533 0.84461754 0.77949209 0.743938 0.67335291
0.94692677 1.0049973 1.0275423000000001 1.1916636 0.96885533 0.84461754 0.77949209 0.743938 0.67335291 0.50527636
1.0049973 1.0275423000000001 1.1916636 0.96885533 0.84461754 0.77949209 0.743938 0.67335291 0.50527636 0.66254685
1.0275423000000001 1.1916636 0.96885533 0.84461754 0.77949209 0.743938 0.67335291 0.50527636 0.66254685 0.60770289
1.1916636 0.96885533 0.84461754 0.77949209 0.743938 0.67335291 0.50527636 0.66254685 0.60770289 0.54610457
0.96885533 0.84461754 0.77949209 0.743938 0.67335291 0.50527636 0.66254685 0.60770289 0.54610457 0.68716257
0.84461754 0.77949209 0.743938 0.67335291 0.50527636 0.66254685 0.60770289 0.54610457 0.68716257 0.54300417
0.77949209 0.743938 0.67335291 0.50527636 0.66254685 0.60770289 0.54610457 0.68716257 0.54300417 0.45314766
0.743938 0.67335291 0.50527636 0.66254685 0.60770289 0.54610457 0.68716257 0.54300417 0.45314766 0.48578457
0.67335291 0.50527636 0.66254685 0.60770289 0.54610457 0.68716257 0.54300417 0.45314766 0.48578457 0.44067902
0.50527636 0.66254685 0.60770289 0.54610457 0.68716257 0.54300417 0.45314766 0.48578457 0.44067902 0.53915332
0.66254685 0.60770289 0.54610457 0.68716257 0.54300417 0.45314766 0.48578457 0.44067902 0.53915332 0.36957146
0.60770289 0.54610457 0.68716257 0.54300417 0.45314766 0.48578457 0.44067902 0.53915332 0.36957146 0.37731573
0.54610457 0.68716257 0.54300417 0.45314766 0.48578457 0.44067902 0.53915332 0.36957146 0.37731573 0.47011338
0.68716257 0.54300417 0.45314766 0.48578457 0.44067902 0.53915332 0.36957146 0.37731573 0.47011338 0.32144799
0.54300417 0.45314766 0.48578457 0.44067902 0.53915332 0.36957146 0.37731573 0.47011338 0.32144799 0.32551344
0.45314766 0.48578457 0.44067902 0.53915332 0.36957146 0.37731573 0.47011338 0.32144799 0.32551344 0.25125875
0.48578457 0.44067902 0.53915332 0.36957146 0.37731573 0.47011338 0.32144799 0.32551344 0.25125875 0.27057109999999995
0.44067902 0.53915332 0.36957146 0.37731573 0.47011338 0.32144799 0.32551344 0.25125875 0.27057109999999995 0.27716131
0.53915332 0.36957146 0.37731573 0.47011338 0.32144799 0.32551344 0.25125875 0.27057109999999995 0.27716131 0.15517117
0.36957146 0.37731573 0.47011338 0.32144799 0.32551344 0.25125875 0.27057109999999995 0.27716131 0.15517117 0.12095431
0.37731573 0.47011338 0.32144799 0.32551344 0.25125875 0.27057109999999995 0.27716131 0.15517117 0.12095431 0.32639509
0.47011338 0.32144799 0.32551344 0.25125875 0.27057109999999995 0.27716131 0.15517117 0.12095431 0.32639509 0.47395183
0.32144799 0.32551344 0.25125875 0.27057109999999995 0.27716131 0.15517117 0.12095431 0.32639509 0.47395183 0.59473611
0.32551344 0.25125875 0.27057109999999995 0.27716131 0.15517117 0.12095431 0.32639509 0.47395183 0.59473611 0.69819946
0.25125875 0.27057109999999995 0.27716131 0.15517117 0.12095431 0.32639509 0.47395183 0.59473611 0.69819946 0.82678088
0.27057109999999995 0.27716131 0.15517117 0.12095431 0.32639509 0.47395183 0.59473611 0.69819946 0.82678088 0.57516625
0.27716131 0.15517117 0.12095431 0.32639509 0.47395183 0.59473611 0.69819946 0.82678088 0.57516625 0.40119607
0.15517117 0.12095431 0.32639509 0.47395183 0.59473611 0.69819946 0.82678088 0.57516625 0.40119607 0.34996612
0.12095431 0.32639509 0.47395183 0.59473611 0.69819946 0.82678088 0.57516625 0.40119607 0.34996612 0.14805279
0.32639509 0.47395183 0.59473611 0.69819946 0.82678088 0.57516625 0.40119607 0.34996612 0.14805279 -0.033206288
0.47395183 0.59473611 0.69819946 0.82678088 0.57516625 0.40119607 0.34996612 0.14805279 -0.033206288 -0.11426641
0.59473611 0.69819946 0.82678088 0.57516625 0.40119607 0.34996612 0.14805279 -0.033206288 -0.11426641 0.12034538
0.69819946 0.82678088 0.57516625 0.40119607 0.34996612 0.14805279 -0.033206288 -0.11426641 0.12034538 -0.22010169
0.82678088 0.57516625 0.40119607 0.34996612 0.14805279 -0.033206288 -0.11426641 0.12034538 -0.22010169 -0.15122608
0.57516625 0.40119607 0.34996612 0.14805279 -0.033206288 -0.11426641 0.12034538 -0.22010169 -0.15122608 -0.077444659
0.40119607 0.34996612 0.14805279 -0.033206288 -0.11426641 0.12034538 -0.22010169 -0.15122608 -0.077444659 -0.09786877599999999
0.34996612 0.14805279 -0.033206288 -0.11426641 0.12034538 -0.22010169 -0.15122608 -0.077444659 -0.09786877599999999 -0.13678697
0.14805279 -0.033206288 -0.11426641 0.12034538 -0.22010169 -0.15122608 -0.077444659 -0.09786877599999999 -0.13678697 -0.34023669
-0.033206288 -0.11426641 0.12034538 -0.22010169 -0.15122608 -0.077444659 -0.09786877599999999 -0.13678697 -0.34023669 -0.089441428
-0.11426641 0.12034538 -0.22010169 -0.15122608 -0.077444659 -0.09786877599999999 -0.13678697 -0.34023669 -0.089441428 -0.080297278
0.12034538 -0.22010169 -0.15122608 -0.077444659 -0.09786877599999999 -0.13678697 -0.34023669 -0.089441428 -0.080297278 -0.19258444
-0.22010169 -0.15122608 -0.077444659 -0.09786877599999999 -0.13678697 -0.34023669 -0.089441428 -0.080297278 -0.19258444 -0.30470444
-0.15122608 -0.077444659 -0.09786877599999999 -0.13678697 -0.34023669 -0.089441428 -0.080297278 -0.19258444 -0.30470444 -0.45455625
-0.077444659 -0.09786877599999999 -0.13678697 -0.34023669 -0.089441428 -0.080297278 -0.19258444 -0.30470444 -0.45455625 0.31459000000000004
-0.09786877599999999 -0.13678697 -0.34023669 -0.089441428 -0.080297278 -0.19258444 -0.30470444 -0.45455625 0.31459000000000004 0.5821895
