0.38123865 0.63353024 1.002302 1.5212777 1.8638941999999998 1.7927666000000002 1.3811552 0.85684321 0.26386347 -0.15280853
0.63353024 1.002302 1.5212777 1.8638941999999998 1.7927666000000002 1.3811552 0.85684321 0.26386347 -0.15280853 -0.13036389999999998
1.002302 1.5212777 1.8638941999999998 1.7927666000000002 1.3811552 0.85684321 0.26386347 -0.15280853 -0.13036389999999998 0.08405992300000001
1.5212777 1.8638941999999998 1.7927666000000002 1.3811552 0.85684321 0.26386347 -0.15280853 -0.13036389999999998 0.08405992300000001 0.034076095
1.8638941999999998 1.7927666000000002 1.3811552 0.85684321 0.26386347 -0.15280853 -0.13036389999999998 0.08405992300000001 0.034076095 -0.18460828
1.7927666000000002 1.3811552 0.85684321 0.26386347 -0.15280853 -0.13036389999999998 0.08405992300000001 0.034076095 -0.18460828 -0.24718659
1.3811552 0.85684321 0.26386347 -0.15280853 -0.13036389999999998 0.08405992300000001 0.034076095 -0.18460828 -0.24718659 -0.19186736
0.85684321 0.26386347 -0.15280853 -0.13036389999999998 0.08405992300000001 0.034076095 -0.18460828 -0.24718659 -0.19186736 -0.10236096
0.26386347 -0.15280853 -0.13036389999999998 0.08405992300000001 0.034076095 -0.18460828 -0.24718659 -0.19186736 -0.10236096 -0.10079175
-0.15280853 -0.13036389999999998 0.08405992300000001 0.034076095 -0.18460828 -0.24718659 -0.19186736 -0.10236096 -0.10079175 -0.38136518
-0.13036389999999998 0.08405992300000001 0.034076095 -0.18460828 -0.24718659 -0.19186736 -0.10236096 -0.10079175 -0.38136518 -0.63136351
0.08405992300000001 0.034076095 -0.18460828 -0.24718659 -0.19186736 -0.10236096 -0.10079175 -0.38136518 -0.63136351 -0.60606993
0.034076095 -0.18460828 -0.24718659 -0.19186736 -0.10236096 -0.10079175 -0.38136518 -0.63136351 -0.60606993 -0.64047755
-0.18460828 -0.24718659 -0.19186736 -0.10236096 -0.10079175 -0.38136518 -0.63136351 -0.60606993 -0.64047755 -0.70421571
-0.24718659 -0.19186736 -0.10236096 -0.10079175 -0.38136518 -0.63136351 -0.60606993 -0.64047755 -0.70421571 -0.632491
-0.19186736 -0.10236096 -0.10079175 -0.38136518 -0.63136351 -0.60606993 -0.64047755 -0.70421571 -0.632491 -0.74384537
-0.10236096 -0.10079175 -0.38136518 -0.63136351 -0.60606993 -0.64047755 -0.70421571 -0.632491 -0.74384537 -0.9688458000000001
-0.10079175 -0.38136518 -0.63136351 -0.60606993 -0.64047755 -0.70421571 -0.632491 -0.74384537 -0.9688458000000001 -0.94665381
-0.38136518 -0.63136351 -0.60606993 -0.64047755 -0.70421571 -0.632491 -0.74384537 -0.9688458000000001 -0.94665381 -0.84190708
-0.63136351 -0.60606993 -0.64047755 -0.70421571 -0.632491 -0.74384537 -0.9688458000000001 -0.94665381 -0.84190708 -0.85262508
-0.60606993 -0.64047755 -0.70421571 -0.632491 -0.74384537 -0.9688458000000001 -0.94665381 -0.84190708 -0.85262508 -0.915115
-0.64047755 -0.70421571 -0.632491 -0.74384537 -0.9688458000000001 -0.94665381 -0.84190708 -0.85262508 -0.915115 -1.070632
-0.70421571 -0.632491 -0.74384537 -0.9688458000000001 -0.94665381 -0.84190708 -0.85262508 -0.915115 -1.070632 -1.3026118999999998
-0.632491 -0.74384537 -0.9688458000000001 -0.94665381 -0.84190708 -0.85262508 -0.915115 -1.070632 -1.3026118999999998 -1.3942987
-0.74384537 -0.9688458000000001 -0.94665381 -0.84190708 -0.85262508 -0.915115 -1.070632 -1.3026118999999998 -1.3942987 -1.3316191000000002
-0.9688458000000001 -0.94665381 -0.84190708 -0.85262508 -0.915115 -1.070632 -1.3026118999999998 -1.3942987 -1.3316191000000002 -1.3642305000000001
-0.94665381 -0.84190708 -0.85262508 -0.915115 -1.070632 -1.3026118999999998 -1.3942987 -1.3316191000000002 -1.3642305000000001 -1.5447106000000002
-0.84190708 -0.85262508 -0.915115 -1.070632 -1.3026118999999998 -1.3942987 -1.3316191000000002 -1.3642305000000001 -1.5447106000000002 -1.6770709
-0.85262508 -0.915115 -1.070632 -1.3026118999999998 -1.3942987 -1.3316191000000002 -1.3642305000000001 -1.5447106000000002 -1.6770709 -1.7169963
-0.915115 -1.070632 -1.3026118999999998 -1.3942987 -1.3316191000000002 -1.3642305000000001 -1.5447106000000002 -1.6770709 -1.7169963 -1.7519345000000002
-1.070632 -1.3026118999999998 -1.3942987 -1.3316191000000002 -1.3642305000000001 -1.5447106000000002 -1.6770709 -1.7169963 -1.7519345000000002 -1.7530923999999999
-1.3026118999999998 -1.3942987 -1.3316191000000002 -1.3642305000000001 -1.5447106000000002 -1.6770709 -1.7169963 -1.7519345000000002 -1.7530923999999999 -1.7430616
-1.3942987 -1.3316191000000002 -1.3642305000000001 -1.5447106000000002 -1.6770709 -1.7169963 -1.7519345000000002 -1.7530923999999999 -1.7430616 -1.8213352999999999
-1.3316191000000002 -1.3642305000000001 -1.5447106000000002 -1.6770709 -1.7169963 -1.7519345000000002 -1.7530923999999999 -1.7430616 -1.8213352999999999 -1.8324035
-1.3642305000000001 -1.5447106000000002 -1.6770709 -1.7169963 -1.7519345000000002 -1.7530923999999999 -1.7430616 -1.8213352999999999 -1.8324035 -1.6011438999999998
-1.5447106000000002 -1.6770709 -1.7169963 -1.7519345000000002 -1.7530923999999999 -1.7430616 -1.8213352999999999 -1.8324035 -1.6011438999999998 -1.3414148000000001
-1.6770709 -1.7169963 -1.7519345000000002 -1.7530923999999999 -1.7430616 -1.8213352999999999 -1.8324035 -1.6011438999999998 -1.3414148000000001 -1.2219698
-1.7169963 -1.7519345000000002 -1.7530923999999999 -1.7430616 -1.8213352999999999 -1.8324035 -1.6011438999999998 -1.3414148000000001 -1.2219698 -1.1242385
-1.7519345000000002 -1.7530923999999999 -1.7430616 -1.8213352999999999 -1.8324035 -1.6011438999999998 -1.3414148000000001 -1.2219698 -1.1242385 -1.0325074
-1.7530923999999999 -1.7430616 -1.8213352999999999 -1.8324035 -1.6011438999999998 -1.3414148000000001 -1.2219698 -1.1242385 -1.0325074 -0.93561726
-1.7430616 -1.8213352999999999 -1.8324035 -1.6011438999999998 -1.3414148000000001 -1.2219698 -1.1242385 -1.0325074 -0.93561726 -0.69685446
-1.8213352999999999 -1.8324035 -1.6011438999999998 -1.3414148000000001 -1.2219698 -1.1242385 -1.0325074 -0.93561726 -0.69685446 -0.37407899
-1.8324035 -1.6011438999999998 -1.3414148000000001 -1.2219698 -1.1242385 -1.0325074 -0.93561726 -0.69685446 -0.37407899 -0.13286473
-1.6011438999999998 -1.3414148000000001 -1.2219698 -1.1242385 -1.0325074 -0.93561726 -0.69685446 -0.37407899 -0.13286473 0.013063598999999999
-1.3414148000000001 -1.2219698 -1.1242385 -1.0325074 -0.93561726 -0.69685446 -0.37407899 -0.13286473 0.013063598999999999 0.13762721
-1.2219698 -1.1242385 -1.0325074 -0.93561726 -0.69685446 -0.37407899 -0.13286473 0.013063598999999999 0.13762721 0.30735216
-1.1242385 -1.0325074 -0.93561726 -0.69685446 -0.37407899 -0.13286473 0.013063598999999999 0.13762721 0.30735216 0.47997495
-1.0325074 -0.93561726 -0.69685446 -0.37407899 -0.13286473 0.013063598999999999 0.13762721 0.30735216 0.47997495 0.58140714
-0.93561726 -0.69685446 -0.37407899 -0.13286473 0.013063598999999999 0.13762721 0.30735216 0.47997495 0.58140714 0.67917086
-0.69685446 -0.37407899 -0.13286473 0.013063598999999999 0.13762721 0.30735216 0.47997495 0.58140714 0.67917086 0.79151735
-0.37407899 -0.13286473 0.013063598999999999 0.13762721 0.30735216 0.47997495 0.58140714 0.67917086 0.79151735 0.81584029
-0.13286473 0.013063598999999999 0.13762721 0.30735216 0.47997495 0.58140714 0.67917086 0.79151735 0.81584029 0.78038301
0.013063598999999999 0.13762721 0.30735216 0.47997495 0.58140714 0.67917086 0.79151735 0.81584029 0.78038301 0.77843241
0.13762721 0.30735216 0.47997495 0.58140714 0.67917086 0.79151735 0.81584029 0.78038301 0.77843241 0.81246709
0.30735216 0.47997495 0.58140714 0.67917086 0.79151735 0.81584029 0.78038301 0.77843241 0.81246709 0.86141506
0.47997495 0.58140714 0.67917086 0.79151735 0.81584029 0.78038301 0.77843241 0.81246709 0.86141506 0.85233767
0.58140714 0.67917086 0.79151735 0.81584029 0.78038301 0.77843241 0.81246709 0.86141506 0.85233767 0.78723205
0.67917086 0.79151735 0.81584029 0.78038301 0.77843241 0.81246709 0.86141506 0.85233767 0.78723205 0.79792534
0.79151735 0.81584029 0.78038301 0.77843241 0.81246709 0.86141506 0.85233767 0.78723205 0.79792534 0.82803079
0.81584029 0.78038301 0.77843241 0.81246709 0.86141506 0.85233767 0.78723205 0.79792534 0.82803079 0.80570054
0.78038301 0.77843241 0.81246709 0.86141506 0.85233767 0.78723205 0.79792534 0.82803079 0.80570054 0.80673359
0.77843241 0.81246709 0.86141506 0.85233767 0.78723205 0.79792534 0.82803079 0.80570054 0.80673359 0.75091701
0.81246709 0.86141506 0.85233767 0.78723205 0.79792534 0.82803079 0.80570054 0.80673359 0.75091701 0.70935151
0.86141506 0.85233767 0.78723205 0.79792534 0.82803079 0.80570054 0.80673359 0.75091701 0.70935151 0.82109051
0.85233767 0.78723205 0.79792534 0.82803079 0.80570054 0.80673359 0.75091701 0.70935151 0.82109051 0.76975229
0.78723205 0.79792534 0.82803079 0.80570054 0.80673359 0.75091701 0.70935151 0.82109051 0.76975229 0.59720507
0.79792534 0.82803079 0.80570054 0.80673359 0.75091701 0.70935151 0.82109051 0.76975229 0.59720507 0.75976065
0.82803079 0.80570054 0.80673359 0.75091701 0.70935151 0.82109051 0.76975229 0.59720507 0.75976065 0.96383845
0.80570054 0.80673359 0.75091701 0.70935151 0.82109051 0.76975229 0.59720507 0.75976065 0.96383845 0.87539839
0.80673359 0.75091701 0.70935151 0.82109051 0.76975229 0.59720507 0.75976065 0.96383845 0.87539839 0.82509616
0.75091701 0.70935151 0.82109051 0.76975229 0.59720507 0.75976065 0.96383845 0.87539839 0.82509616 0.86680864
0.70935151 0.82109051 0.76975229 0.59720507 0.75976065 0.96383845 0.87539839 0.82509616 0.86680864 0.85295836
0.82109051 0.76975229 0.59720507 0.75976065 0.96383845 0.87539839 0.82509616 0.86680864 0.85295836 0.86424777
0.76975229 0.59720507 0.75976065 0.96383845 0.87539839 0.82509616 0.86680864 0.85295836 0.86424777 0.89555601
0.59720507 0.75976065 0.96383845 0.87539839 0.82509616 0.86680864 0.85295836 0.86424777 0.89555601 1.0137696
0.75976065 0.96383845 0.87539839 0.82509616 0.86680864 0.85295836 0.86424777 0.89555601 1.0137696 1.1453726999999998
0.96383845 0.87539839 0.82509616 0.86680864 0.85295836 0.86424777 0.89555601 1.0137696 1.1453726999999998 1.0410415000000002
0.87539839 0.82509616 0.86680864 0.85295836 0.86424777 0.89555601 1.0137696 1.1453726999999998 1.0410415000000002 1.0540548
0.82509616 0.86680864 0.85295836 0.86424777 0.89555601 1.0137696 1.1453726999999998 1.0410415000000002 1.0540548 1.3494831
0.86680864 0.85295836 0.86424777 0.89555601 1.0137696 1.1453726999999998 1.0410415000000002 1.0540548 1.3494831 1.4363899
0.85295836 0.86424777 0.89555601 1.0137696 1.1453726999999998 1.0410415000000002 1.0540548 1.3494831 1.4363899 1.3002423
0.86424777 0.89555601 1.0137696 1.1453726999999998 1.0410415000000002 1.0540548 1.3494831 1.4363899 1.3002423 0.95296784
0.89555601 1.0137696 1.1453726999999998 1.0410415000000002 1.0540548 1.3494831 1.4363899 1.3002423 0.95296784 0.35397519
1.0137696 1.1453726999999998 1.0410415000000002 1.0540548 1.3494831 1.4363899 1.3002423 0.95296784 0.35397519 -0.037792658
1.1453726999999998 1.0410415000000002 1.0540548 1.3494831 1.4363899 1.3002423 0.95296784 0.35397519 -0.037792658 -0.60937387
1.0410415000000002 1.0540548 1.3494831 1.4363899 1.3002423 0.95296784 0.35397519 -0.037792658 -0.60937387 -1.474071
1.0540548 1.3494831 1.4363899 1.3002423 0.95296784 0.35397519 -0.037792658 -0.60937387 -1.474071 -1.0700091
