0.31452914 1.9123548 2.9333556 1.5788524 1.3517568000000002 0.028089189 -1.2632887 0.032857894 0.40003933 -0.20063643
1.9123548 2.9333556 1.5788524 1.3517568000000002 0.028089189 -1.2632887 0.032857894 0.40003933 -0.20063643 0.065543508
2.9333556 1.5788524 1.3517568000000002 0.028089189 -1.2632887 0.032857894 0.40003933 -0.20063643 0.065543508 0.20950973
1.5788524 1.3517568000000002 0.028089189 -1.2632887 0.032857894 0.40003933 -0.20063643 0.065543508 0.20950973 -0.69548403
1.3517568000000002 0.028089189 -1.2632887 0.032857894 0.40003933 -0.20063643 0.065543508 0.20950973 -0.69548403 -1.0077523000000002
0.028089189 -1.2632887 0.032857894 0.40003933 -0.20063643 0.065543508 0.20950973 -0.69548403 -1.0077523000000002 -0.94276255
-1.2632887 0.032857894 0.40003933 -0.20063643 0.065543508 0.20950973 -0.69548403 -1.0077523000000002 -0.94276255 -1.1275164
0.032857894 0.40003933 -0.20063643 0.065543508 0.20950973 -0.69548403 -1.0077523000000002 -0.94276255 -1.1275164 -1.095153
0.40003933 -0.20063643 0.065543508 0.20950973 -0.69548403 -1.0077523000000002 -0.94276255 -1.1275164 -1.095153 -1.0951984
-0.20063643 0.065543508 0.20950973 -0.69548403 -1.0077523000000002 -0.94276255 -1.1275164 -1.095153 -1.0951984 -1.2995268999999998
0.065543508 0.20950973 -0.69548403 -1.0077523000000002 -0.94276255 -1.1275164 -1.095153 -1.0951984 -1.2995268999999998 -1.4563502000000002
0.20950973 -0.69548403 -1.0077523000000002 -0.94276255 -1.1275164 -1.095153 -1.0951984 -1.2995268999999998 -1.4563502000000002 -1.3408938999999997
-0.69548403 -1.0077523000000002 -0.94276255 -1.1275164 -1.095153 -1.0951984 -1.2995268999999998 -1.4563502000000002 -1.3408938999999997 -1.2609331
-1.0077523000000002 -0.94276255 -1.1275164 -1.095153 -1.0951984 -1.2995268999999998 -1.4563502000000002 -1.3408938999999997 -1.2609331 -1.5417315
-0.94276255 -1.1275164 -1.095153 -1.0951984 -1.2995268999999998 -1.4563502000000002 -1.3408938999999997 -1.2609331 -1.5417315 -1.6982380000000001
-1.1275164 -1.095153 -1.0951984 -1.2995268999999998 -1.4563502000000002 -1.3408938999999997 -1.2609331 -1.5417315 -1.6982380000000001 -1.6536663
-1.095153 -1.0951984 -1.2995268999999998 -1.4563502000000002 -1.3408938999999997 -1.2609331 -1.5417315 -1.6982380000000001 -1.6536663 -1.682468
-1.0951984 -1.2995268999999998 -1.4563502000000002 -1.3408938999999997 -1.2609331 -1.5417315 -1.6982380000000001 -1.6536663 -1.682468 -1.8680693
-1.2995268999999998 -1.4563502000000002 -1.3408938999999997 -1.2609331 -1.5417315 -1.6982380000000001 -1.6536663 -1.682468 -1.8680693 -2.0167441999999998
-1.4563502000000002 -1.3408938999999997 -1.2609331 -1.5417315 -1.6982380000000001 -1.6536663 -1.682468 -1.8680693 -2.0167441999999998 -1.9484744999999999
-1.3408938999999997 -1.2609331 -1.5417315 -1.6982380000000001 -1.6536663 -1.682468 -1.8680693 -2.0167441999999998 -1.9484744999999999 -2.0687512
-1.2609331 -1.5417315 -1.6982380000000001 -1.6536663 -1.682468 -1.8680693 -2.0167441999999998 -1.9484744999999999 -2.0687512 -2.1358327999999998
-1.5417315 -1.6982380000000001 -1.6536663 -1.682468 -1.8680693 -2.0167441999999998 -1.9484744999999999 -2.0687512 -2.1358327999999998 -1.9864863999999998
-1.6982380000000001 -1.6536663 -1.682468 -1.8680693 -2.0167441999999998 -1.9484744999999999 -2.0687512 -2.1358327999999998 -1.9864863999999998 -1.5471905000000001
-1.6536663 -1.682468 -1.8680693 -2.0167441999999998 -1.9484744999999999 -2.0687512 -2.1358327999999998 -1.9864863999999998 -1.5471905000000001 -1.6836213
-1.682468 -1.8680693 -2.0167441999999998 -1.9484744999999999 -2.0687512 -2.1358327999999998 -1.9864863999999998 -1.5471905000000001 -1.6836213 -1.5096744
-1.8680693 -2.0167441999999998 -1.9484744999999999 -2.0687512 -2.1358327999999998 -1.9864863999999998 -1.5471905000000001 -1.6836213 -1.5096744 -0.86883463
-2.0167441999999998 -1.9484744999999999 -2.0687512 -2.1358327999999998 -1.9864863999999998 -1.5471905000000001 -1.6836213 -1.5096744 -0.86883463 -0.80272275
-1.9484744999999999 -2.0687512 -2.1358327999999998 -1.9864863999999998 -1.5471905000000001 -1.6836213 -1.5096744 -0.86883463 -0.80272275 -0.32872716
-2.0687512 -2.1358327999999998 -1.9864863999999998 -1.5471905000000001 -1.6836213 -1.5096744 -0.86883463 -0.80272275 -0.32872716 -0.13563526
-2.1358327999999998 -1.9864863999999998 -1.5471905000000001 -1.6836213 -1.5096744 -0.86883463 -0.80272275 -0.32872716 -0.13563526 0.14102395
-1.9864863999999998 -1.5471905000000001 -1.6836213 -1.5096744 -0.86883463 -0.80272275 -0.32872716 -0.13563526 0.14102395 0.66481739
-1.5471905000000001 -1.6836213 -1.5096744 -0.86883463 -0.80272275 -0.32872716 -0.13563526 0.14102395 0.66481739 0.51545957
-1.6836213 -1.5096744 -0.86883463 -0.80272275 -0.32872716 -0.13563526 0.14102395 0.66481739 0.51545957 0.87494502
-1.5096744 -0.86883463 -0.80272275 -0.32872716 -0.13563526 0.14102395 0.66481739 0.51545957 0.87494502 0.71134621
-0.86883463 -0.80272275 -0.32872716 -0.13563526 0.14102395 0.66481739 0.51545957 0.87494502 0.71134621 1.0102798000000002
-0.80272275 -0.32872716 -0.13563526 0.14102395 0.66481739 0.51545957 0.87494502 0.71134621 1.0102798000000002 0.84586816
-0.32872716 -0.13563526 0.14102395 0.66481739 0.51545957 0.87494502 0.71134621 1.0102798000000002 0.84586816 0.64720847
-0.13563526 0.14102395 0.66481739 0.51545957 0.87494502 0.71134621 1.0102798000000002 0.84586816 0.64720847 1.171734
0.14102395 0.66481739 0.51545957 0.87494502 0.71134621 1.0102798000000002 0.84586816 0.64720847 1.171734 0.54904041
0.66481739 0.51545957 0.87494502 0.71134621 1.0102798000000002 0.84586816 0.64720847 1.171734 0.54904041 0.79365876
0.51545957 0.87494502 0.71134621 1.0102798000000002 0.84586816 0.64720847 1.171734 0.54904041 0.79365876 0.78513749
0.87494502 0.71134621 1.0102798000000002 0.84586816 0.64720847 1.171734 0.54904041 0.79365876 0.78513749 0.34467449
0.71134621 1.0102798000000002 0.84586816 0.64720847 1.171734 0.54904041 0.79365876 0.78513749 0.34467449 0.78651213
1.0102798000000002 0.84586816 0.64720847 1.171734 0.54904041 0.79365876 0.78513749 0.34467449 0.78651213 0.48572658
0.84586816 0.64720847 1.171734 0.54904041 0.79365876 0.78513749 0.34467449 0.78651213 0.48572658 0.68113477
0.64720847 1.171734 0.54904041 0.79365876 0.78513749 0.34467449 0.78651213 0.48572658 0.68113477 0.60322562
1.171734 0.54904041 0.79365876 0.78513749 0.34467449 0.78651213 0.48572658 0.68113477 0.60322562 0.62542157
0.54904041 0.79365876 0.78513749 0.34467449 0.78651213 0.48572658 0.68113477 0.60322562 0.62542157 0.55096738
0.79365876 0.78513749 0.34467449 0.78651213 0.48572658 0.68113477 0.60322562 0.62542157 0.55096738 0.55788416
0.78513749 0.34467449 0.78651213 0.48572658 0.68113477 0.60322562 0.62542157 0.55096738 0.55788416 0.59327119
0.34467449 0.78651213 0.48572658 0.68113477 0.60322562 0.62542157 0.55096738 0.55788416 0.59327119 0.63621326
0.78651213 0.48572658 0.68113477 0.60322562 0.62542157 0.55096738 0.55788416 0.59327119 0.63621326 0.84050833
0.48572658 0.68113477 0.60322562 0.62542157 0.55096738 0.55788416 0.59327119 0.63621326 0.84050833 0.36189828
0.68113477 0.60322562 0.62542157 0.55096738 0.55788416 0.59327119 0.63621326 0.84050833 0.36189828 0.44499235
0.60322562 0.62542157 0.55096738 0.55788416 0.59327119 0.63621326 0.84050833 0.36189828 0.44499235 0.73680784
0.62542157 0.55096738 0.55788416 0.59327119 0.63621326 0.84050833 0.36189828 0.44499235 0.73680784 0.33686932
0.55096738 0.55788416 0.59327119 0.63621326 0.84050833 0.36189828 0.44499235 0.73680784 0.33686932 0.55244374
0.55788416 0.59327119 0.63621326 0.84050833 0.36189828 0.44499235 0.73680784 0.33686932 0.55244374 0.37112219
0.59327119 0.63621326 0.84050833 0.36189828 0.44499235 0.73680784 0.33686932 0.55244374 0.37112219 0.37065549
0.63621326 0.84050833 0.36189828 0.44499235 0.73680784 0.33686932 0.55244374 0.37112219 0.37065549 0.68025979
0.84050833 0.36189828 0.44499235 0.73680784 0.33686932 0.55244374 0.37112219 0.37065549 0.68025979 0.08146743
0.36189828 0.44499235 0.73680784 0.33686932 0.55244374 0.37112219 0.37065549 0.68025979 0.08146743 0.4553567
0.44499235 0.73680784 0.33686932 0.55244374 0.37112219 0.37065549 0.68025979 0.08146743 0.4553567 0.44991117
0.73680784 0.33686932 0.55244374 0.37112219 0.37065549 0.68025979 0.08146743 0.4553567 0.44991117 0.43518479
0.33686932 0.55244374 0.37112219 0.37065549 0.68025979 0.08146743 0.4553567 0.44991117 0.43518479 1.0397024
0.55244374 0.37112219 0.37065549 0.68025979 0.08146743 0.4553567 0.44991117 0.43518479 1.0397024 0.63467635
0.37112219 0.37065549 0.68025979 0.08146743 0.4553567 0.44991117 0.43518479 1.0397024 0.63467635 0.94194723
0.37065549 0.68025979 0.08146743 0.4553567 0.44991117 0.43518479 1.0397024 0.63467635 0.94194723 1.0765017
0.68025979 0.08146743 0.4553567 0.44991117 0.43518479 1.0397024 0.63467635 0.94194723 1.0765017 0.40302246
0.08146743 0.4553567 0.44991117 0.43518479 1.0397024 0.63467635 0.94194723 1.0765017 0.40302246 0.50310337
0.4553567 0.44991117 0.43518479 1.0397024 0.63467635 0.94194723 1.0765017 0.40302246 0.50310337 0.40319452
0.44991117 0.43518479 1.0397024 0.63467635 0.94194723 1.0765017 0.40302246 0.50310337 0.40319452 0.18811983
0.43518479 1.0397024 0.63467635 0.94194723 1.0765017 0.40302246 0.50310337 0.40319452 0.18811983 0.14261348
1.0397024 0.63467635 0.94194723 1.0765017 0.40302246 0.50310337 0.40319452 0.18811983 0.14261348 0.20686898
0.63467635 0.94194723 1.0765017 0.40302246 0.50310337 0.40319452 0.18811983 0.14261348 0.20686898 0.16984613
0.94194723 1.0765017 0.40302246 0.50310337 0.40319452 0.18811983 0.14261348 0.20686898 0.16984613 0.17912233
1.0765017 0.40302246 0.50310337 0.40319452 0.18811983 0.14261348 0.20686898 0.16984613 0.17912233 0.47274545
0.40302246 0.50310337 0.40319452 0.18811983 0.14261348 0.20686898 0.16984613 0.17912233 0.47274545 0.21595497
0.50310337 0.40319452 0.18811983 0.14261348 0.20686898 0.16984613 0.17912233 0.47274545 0.21595497 -0.0015606175
0.40319452 0.18811983 0.14261348 0.20686898 0.16984613 0.17912233 0.47274545 0.21595497 -0.0015606175 0.261008
0.18811983 0.14261348 0.20686898 0.16984613 0.17912233 0.47274545 0.21595497 -0.0015606175 0.261008 0.33200537
0.14261348 0.20686898 0.16984613 0.17912233 0.47274545 0.21595497 -0.0015606175 0.261008 0.33200537 0.19580798
0.20686898 0.16984613 0.17912233 0.47274545 0.21595497 -0.0015606175 0.261008 0.33200537 0.19580798 0.27623309
0.16984613 0.17912233 0.47274545 0.21595497 -0.0015606175 0.261008 0.33200537 0.19580798 0.27623309 0.39961581
0.17912233 0.47274545 0.21595497 -0.0015606175 0.261008 0.33200537 0.19580798 0.27623309 0.39961581 0.36897911
0.47274545 0.21595497 -0.0015606175 0.261008 0.33200537 0.19580798 0.27623309 0.39961581 0.36897911 0.33294027
