0.31421954 0.78106253 1.2049683999999998 1.5346969 1.8773313999999999 2.1582136000000003 2.1029722 1.6779093999999997 1.1686752 0.68953902
0.78106253 1.2049683999999998 1.5346969 1.8773313999999999 2.1582136000000003 2.1029722 1.6779093999999997 1.1686752 0.68953902 0.16295673
1.2049683999999998 1.5346969 1.8773313999999999 2.1582136000000003 2.1029722 1.6779093999999997 1.1686752 0.68953902 0.16295673 -0.22586798
1.5346969 1.8773313999999999 2.1582136000000003 2.1029722 1.6779093999999997 1.1686752 0.68953902 0.16295673 -0.22586798 -0.26498096
1.8773313999999999 2.1582136000000003 2.1029722 1.6779093999999997 1.1686752 0.68953902 0.16295673 -0.22586798 -0.26498096 -0.17853669
2.1582136000000003 2.1029722 1.6779093999999997 1.1686752 0.68953902 0.16295673 -0.22586798 -0.26498096 -0.17853669 -0.21714779
2.1029722 1.6779093999999997 1.1686752 0.68953902 0.16295673 -0.22586798 -0.26498096 -0.17853669 -0.21714779 -0.2391025
1.6779093999999997 1.1686752 0.68953902 0.16295673 -0.22586798 -0.26498096 -0.17853669 -0.21714779 -0.2391025 -0.095147651
1.1686752 0.68953902 0.16295673 -0.22586798 -0.26498096 -0.17853669 -0.21714779 -0.2391025 -0.095147651 0.067183123
0.68953902 0.16295673 -0.22586798 -0.26498096 -0.17853669 -0.21714779 -0.2391025 -0.095147651 0.067183123 0.044738707
0.16295673 -0.22586798 -0.26498096 -0.17853669 -0.21714779 -0.2391025 -0.095147651 0.067183123 0.044738707 -0.19239807
-0.22586798 -0.26498096 -0.17853669 -0.21714779 -0.2391025 -0.095147651 0.067183123 0.044738707 -0.19239807 -0.52251979
-0.26498096 -0.17853669 -0.21714779 -0.2391025 -0.095147651 0.067183123 0.044738707 -0.19239807 -0.52251979 -0.75271166
-0.17853669 -0.21714779 -0.2391025 -0.095147651 0.067183123 0.044738707 -0.19239807 -0.52251979 -0.75271166 -0.7633734000000001
-0.21714779 -0.2391025 -0.095147651 0.067183123 0.044738707 -0.19239807 -0.52251979 -0.75271166 -0.7633734000000001 -0.67793966
-0.2391025 -0.095147651 0.067183123 0.044738707 -0.19239807 -0.52251979 -0.75271166 -0.7633734000000001 -0.67793966 -0.70799498
-0.095147651 0.067183123 0.044738707 -0.19239807 -0.52251979 -0.75271166 -0.7633734000000001 -0.67793966 -0.70799498 -0.83776254
0.067183123 0.044738707 -0.19239807 -0.52251979 -0.75271166 -0.7633734000000001 -0.67793966 -0.70799498 -0.83776254 -0.89701391
0.044738707 -0.19239807 -0.52251979 -0.75271166 -0.7633734000000001 -0.67793966 -0.70799498 -0.83776254 -0.89701391 -0.89567536
-0.19239807 -0.52251979 -0.75271166 -0.7633734000000001 -0.67793966 -0.70799498 -0.83776254 -0.89701391 -0.89567536 -0.9626454
-0.52251979 -0.75271166 -0.7633734000000001 -0.67793966 -0.70799498 -0.83776254 -0.89701391 -0.89567536 -0.9626454 -1.0852043
-0.75271166 -0.7633734000000001 -0.67793966 -0.70799498 -0.83776254 -0.89701391 -0.89567536 -0.9626454 -1.0852043 -1.1786837
-0.7633734000000001 -0.67793966 -0.70799498 -0.83776254 -0.89701391 -0.89567536 -0.9626454 -1.0852043 -1.1786837 -1.2381379
-0.67793966 -0.70799498 -0.83776254 -0.89701391 -0.89567536 -0.9626454 -1.0852043 -1.1786837 -1.2381379 -1.311662
-0.70799498 -0.83776254 -0.89701391 -0.89567536 -0.9626454 -1.0852043 -1.1786837 -1.2381379 -1.311662 -1.4525965
-0.83776254 -0.89701391 -0.89567536 -0.9626454 -1.0852043 -1.1786837 -1.2381379 -1.311662 -1.4525965 -1.6413078
-0.89701391 -0.89567536 -0.9626454 -1.0852043 -1.1786837 -1.2381379 -1.311662 -1.4525965 -1.6413078 -1.7848403999999998
-0.89567536 -0.9626454 -1.0852043 -1.1786837 -1.2381379 -1.311662 -1.4525965 -1.6413078 -1.7848403999999998 -1.8723492
-0.9626454 -1.0852043 -1.1786837 -1.2381379 -1.311662 -1.4525965 -1.6413078 -1.7848403999999998 -1.8723492 -1.8906598000000001
-1.0852043 -1.1786837 -1.2381379 -1.311662 -1.4525965 -1.6413078 -1.7848403999999998 -1.8723492 -1.8906598000000001 -1.7787761000000002
-1.1786837 -1.2381379 -1.311662 -1.4525965 -1.6413078 -1.7848403999999998 -1.8723492 -1.8906598000000001 -1.7787761000000002 -1.7101998
-1.2381379 -1.311662 -1.4525965 -1.6413078 -1.7848403999999998 -1.8723492 -1.8906598000000001 -1.7787761000000002 -1.7101998 -1.8413477999999999
-1.311662 -1.4525965 -1.6413078 -1.7848403999999998 -1.8723492 -1.8906598000000001 -1.7787761000000002 -1.7101998 -1.8413477999999999 -1.8897977
-1.4525965 -1.6413078 -1.7848403999999998 -1.8723492 -1.8906598000000001 -1.7787761000000002 -1.7101998 -1.8413477999999999 -1.8897977 -1.725754
-1.6413078 -1.7848403999999998 -1.8723492 -1.8906598000000001 -1.7787761000000002 -1.7101998 -1.8413477999999999 -1.8897977 -1.725754 -1.6544786
-1.7848403999999998 -1.8723492 -1.8906598000000001 -1.7787761000000002 -1.7101998 -1.8413477999999999 -1.8897977 -1.725754 -1.6544786 -1.6172058999999999
-1.8723492 -1.8906598000000001 -1.7787761000000002 -1.7101998 -1.8413477999999999 -1.8897977 -1.725754 -1.6544786 -1.6172058999999999 -1.3332645
-1.8906598000000001 -1.7787761000000002 -1.7101998 -1.8413477999999999 -1.8897977 -1.725754 -1.6544786 -1.6172058999999999 -1.3332645 -1.0711115
-1.7787761000000002 -1.7101998 -1.8413477999999999 -1.8897977 -1.725754 -1.6544786 -1.6172058999999999 -1.3332645 -1.0711115 -1.0532569999999999
-1.7101998 -1.8413477999999999 -1.8897977 -1.725754 -1.6544786 -1.6172058999999999 -1.3332645 -1.0711115 -1.0532569999999999 -0.94570387
-1.8413477999999999 -1.8897977 -1.725754 -1.6544786 -1.6172058999999999 -1.3332645 -1.0711115 -1.0532569999999999 -0.94570387 -0.6480925000000001
-1.8897977 -1.725754 -1.6544786 -1.6172058999999999 -1.3332645 -1.0711115 -1.0532569999999999 -0.94570387 -0.6480925000000001 -0.46395201
-1.725754 -1.6544786 -1.6172058999999999 -1.3332645 -1.0711115 -1.0532569999999999 -0.94570387 -0.6480925000000001 -0.46395201 -0.44029382
-1.6544786 -1.6172058999999999 -1.3332645 -1.0711115 -1.0532569999999999 -0.94570387 -0.6480925000000001 -0.46395201 -0.44029382 -0.37801159
-1.6172058999999999 -1.3332645 -1.0711115 -1.0532569999999999 -0.94570387 -0.6480925000000001 -0.46395201 -0.44029382 -0.37801159 -0.17973792
-1.3332645 -1.0711115 -1.0532569999999999 -0.94570387 -0.6480925000000001 -0.46395201 -0.44029382 -0.37801159 -0.17973792 0.068041623
-1.0711115 -1.0532569999999999 -0.94570387 -0.6480925000000001 -0.46395201 -0.44029382 -0.37801159 -0.17973792 0.068041623 0.16977129999999999
-1.0532569999999999 -0.94570387 -0.6480925000000001 -0.46395201 -0.44029382 -0.37801159 -0.17973792 0.068041623 0.16977129999999999 0.13236052
-0.94570387 -0.6480925000000001 -0.46395201 -0.44029382 -0.37801159 -0.17973792 0.068041623 0.16977129999999999 0.13236052 0.20540715
-0.6480925000000001 -0.46395201 -0.44029382 -0.37801159 -0.17973792 0.068041623 0.16977129999999999 0.13236052 0.20540715 0.39916148
-0.46395201 -0.44029382 -0.37801159 -0.17973792 0.068041623 0.16977129999999999 0.13236052 0.20540715 0.39916148 0.49643003
-0.44029382 -0.37801159 -0.17973792 0.068041623 0.16977129999999999 0.13236052 0.20540715 0.39916148 0.49643003 0.51251997
-0.37801159 -0.17973792 0.068041623 0.16977129999999999 0.13236052 0.20540715 0.39916148 0.49643003 0.51251997 0.56105279
-0.17973792 0.068041623 0.16977129999999999 0.13236052 0.20540715 0.39916148 0.49643003 0.51251997 0.56105279 0.60312536
0.068041623 0.16977129999999999 0.13236052 0.20540715 0.39916148 0.49643003 0.51251997 0.56105279 0.60312536 0.6565219
0.16977129999999999 0.13236052 0.20540715 0.39916148 0.49643003 0.51251997 0.56105279 0.60312536 0.6565219 0.74428084
0.13236052 0.20540715 0.39916148 0.49643003 0.51251997 0.56105279 0.60312536 0.6565219 0.74428084 0.74381857
0.20540715 0.39916148 0.49643003 0.51251997 0.56105279 0.60312536 0.6565219 0.74428084 0.74381857 0.66879431
0.39916148 0.49643003 0.51251997 0.56105279 0.60312536 0.6565219 0.74428084 0.74381857 0.66879431 0.67557652
0.49643003 0.51251997 0.56105279 0.60312536 0.6565219 0.74428084 0.74381857 0.66879431 0.67557652 0.72364773
0.51251997 0.56105279 0.60312536 0.6565219 0.74428084 0.74381857 0.66879431 0.67557652 0.72364773 0.72221816
0.56105279 0.60312536 0.6565219 0.74428084 0.74381857 0.66879431 0.67557652 0.72364773 0.72221816 0.77217538
0.60312536 0.6565219 0.74428084 0.74381857 0.66879431 0.67557652 0.72364773 0.72221816 0.77217538 0.8871880999999999
0.6565219 0.74428084 0.74381857 0.66879431 0.67557652 0.72364773 0.72221816 0.77217538 0.8871880999999999 0.88714718
0.74428084 0.74381857 0.66879431 0.67557652 0.72364773 0.72221816 0.77217538 0.8871880999999999 0.88714718 0.77645149
0.74381857 0.66879431 0.67557652 0.72364773 0.72221816 0.77217538 0.8871880999999999 0.88714718 0.77645149 0.76292721
0.66879431 0.67557652 0.72364773 0.72221816 0.77217538 0.8871880999999999 0.88714718 0.77645149 0.76292721 0.81154604
0.67557652 0.72364773 0.72221816 0.77217538 0.8871880999999999 0.88714718 0.77645149 0.76292721 0.81154604 0.68923001
0.72364773 0.72221816 0.77217538 0.8871880999999999 0.88714718 0.77645149 0.76292721 0.81154604 0.68923001 0.48300041
0.72221816 0.77217538 0.8871880999999999 0.88714718 0.77645149 0.76292721 0.81154604 0.68923001 0.48300041 0.5368841
0.77217538 0.8871880999999999 0.88714718 0.77645149 0.76292721 0.81154604 0.68923001 0.48300041 0.5368841 0.82934108
0.8871880999999999 0.88714718 0.77645149 0.76292721 0.81154604 0.68923001 0.48300041 0.5368841 0.82934108 0.96538322
0.88714718 0.77645149 0.76292721 0.81154604 0.68923001 0.48300041 0.5368841 0.82934108 0.96538322 0.89002952
0.77645149 0.76292721 0.81154604 0.68923001 0.48300041 0.5368841 0.82934108 0.96538322 0.89002952 0.90713135
0.76292721 0.81154604 0.68923001 0.48300041 0.5368841 0.82934108 0.96538322 0.89002952 0.90713135 0.95208708
0.81154604 0.68923001 0.48300041 0.5368841 0.82934108 0.96538322 0.89002952 0.90713135 0.95208708 0.7811642
0.68923001 0.48300041 0.5368841 0.82934108 0.96538322 0.89002952 0.90713135 0.95208708 0.7811642 0.6401906999999999
0.48300041 0.5368841 0.82934108 0.96538322 0.89002952 0.90713135 0.95208708 0.7811642 0.6401906999999999 0.71962299
0.5368841 0.82934108 0.96538322 0.89002952 0.90713135 0.95208708 0.7811642 0.6401906999999999 0.71962299 0.69281771
0.82934108 0.96538322 0.89002952 0.90713135 0.95208708 0.7811642 0.6401906999999999 0.71962299 0.69281771 0.53890721
0.96538322 0.89002952 0.90713135 0.95208708 0.7811642 0.6401906999999999 0.71962299 0.69281771 0.53890721 0.61208345
0.89002952 0.90713135 0.95208708 0.7811642 0.6401906999999999 0.71962299 0.69281771 0.53890721 0.61208345 0.73607727
0.90713135 0.95208708 0.7811642 0.6401906999999999 0.71962299 0.69281771 0.53890721 0.61208345 0.73607727 0.57119883
0.95208708 0.7811642 0.6401906999999999 0.71962299 0.69281771 0.53890721 0.61208345 0.73607727 0.57119883 0.44656844
0.7811642 0.6401906999999999 0.71962299 0.69281771 0.53890721 0.61208345 0.73607727 0.57119883 0.44656844 0.67154941
0.6401906999999999 0.71962299 0.69281771 0.53890721 0.61208345 0.73607727 0.57119883 0.44656844 0.67154941 0.78798188
0.71962299 0.69281771 0.53890721 0.61208345 0.73607727 0.57119883 0.44656844 0.67154941 0.78798188 0.40136535
