0.12377605 2.4334613999999997 2.7623845 2.3959632 2.1412625 -0.41829927 0.51694526 0.34633990000000003 -0.024068726000000002 0.59781942
2.4334613999999997 2.7623845 2.3959632 2.1412625 -0.41829927 0.51694526 0.34633990000000003 -0.024068726000000002 0.59781942 -0.41035257
2.7623845 2.3959632 2.1412625 -0.41829927 0.51694526 0.34633990000000003 -0.024068726000000002 0.59781942 -0.41035257 -1.3711803
2.3959632 2.1412625 -0.41829927 0.51694526 0.34633990000000003 -0.024068726000000002 0.59781942 -0.41035257 -1.3711803 -1.2626738000000002
2.1412625 -0.41829927 0.51694526 0.34633990000000003 -0.024068726000000002 0.59781942 -0.41035257 -1.3711803 -1.2626738000000002 -1.3410687
-0.41829927 0.51694526 0.34633990000000003 -0.024068726000000002 0.59781942 -0.41035257 -1.3711803 -1.2626738000000002 -1.3410687 -1.439354
0.51694526 0.34633990000000003 -0.024068726000000002 0.59781942 -0.41035257 -1.3711803 -1.2626738000000002 -1.3410687 -1.439354 -1.7022761999999998
0.34633990000000003 -0.024068726000000002 0.59781942 -0.41035257 -1.3711803 -1.2626738000000002 -1.3410687 -1.439354 -1.7022761999999998 -1.5347447
-0.024068726000000002 0.59781942 -0.41035257 -1.3711803 -1.2626738000000002 -1.3410687 -1.439354 -1.7022761999999998 -1.5347447 -1.5867927
0.59781942 -0.41035257 -1.3711803 -1.2626738000000002 -1.3410687 -1.439354 -1.7022761999999998 -1.5347447 -1.5867927 -1.7684513
-0.41035257 -1.3711803 -1.2626738000000002 -1.3410687 -1.439354 -1.7022761999999998 -1.5347447 -1.5867927 -1.7684513 -1.7812406000000003
-1.3711803 -1.2626738000000002 -1.3410687 -1.439354 -1.7022761999999998 -1.5347447 -1.5867927 -1.7684513 -1.7812406000000003 -2.0252244999999998
-1.2626738000000002 -1.3410687 -1.439354 -1.7022761999999998 -1.5347447 -1.5867927 -1.7684513 -1.7812406000000003 -2.0252244999999998 -2.0039307
-1.3410687 -1.439354 -1.7022761999999998 -1.5347447 -1.5867927 -1.7684513 -1.7812406000000003 -2.0252244999999998 -2.0039307 -2.2033053
-1.439354 -1.7022761999999998 -1.5347447 -1.5867927 -1.7684513 -1.7812406000000003 -2.0252244999999998 -2.0039307 -2.2033053 -2.2882265
-1.7022761999999998 -1.5347447 -1.5867927 -1.7684513 -1.7812406000000003 -2.0252244999999998 -2.0039307 -2.2033053 -2.2882265 -2.1056452
-1.5347447 -1.5867927 -1.7684513 -1.7812406000000003 -2.0252244999999998 -2.0039307 -2.2033053 -2.2882265 -2.1056452 -2.1816572
-1.5867927 -1.7684513 -1.7812406000000003 -2.0252244999999998 -2.0039307 -2.2033053 -2.2882265 -2.1056452 -2.1816572 -1.8756047999999998
-1.7684513 -1.7812406000000003 -2.0252244999999998 -2.0039307 -2.2033053 -2.2882265 -2.1056452 -2.1816572 -1.8756047999999998 -1.7190811000000001
-1.7812406000000003 -2.0252244999999998 -2.0039307 -2.2033053 -2.2882265 -2.1056452 -2.1816572 -1.8756047999999998 -1.7190811000000001 -1.4309135
-2.0252244999999998 -2.0039307 -2.2033053 -2.2882265 -2.1056452 -2.1816572 -1.8756047999999998 -1.7190811000000001 -1.4309135 -0.8422116
-2.0039307 -2.2033053 -2.2882265 -2.1056452 -2.1816572 -1.8756047999999998 -1.7190811000000001 -1.4309135 -0.8422116 -0.60268298
-2.2033053 -2.2882265 -2.1056452 -2.1816572 -1.8756047999999998 -1.7190811000000001 -1.4309135 -0.8422116 -0.60268298 -0.27167349
-2.2882265 -2.1056452 -2.1816572 -1.8756047999999998 -1.7190811000000001 -1.4309135 -0.8422116 -0.60268298 -0.27167349 0.043212308
-2.1056452 -2.1816572 -1.8756047999999998 -1.7190811000000001 -1.4309135 -0.8422116 -0.60268298 -0.27167349 0.043212308 0.42843503
-2.1816572 -1.8756047999999998 -1.7190811000000001 -1.4309135 -0.8422116 -0.60268298 -0.27167349 0.043212308 0.42843503 0.41907598
-1.8756047999999998 -1.7190811000000001 -1.4309135 -0.8422116 -0.60268298 -0.27167349 0.043212308 0.42843503 0.41907598 0.50986322
-1.7190811000000001 -1.4309135 -0.8422116 -0.60268298 -0.27167349 0.043212308 0.42843503 0.41907598 0.50986322 0.73711529
-1.4309135 -0.8422116 -0.60268298 -0.27167349 0.043212308 0.42843503 0.41907598 0.50986322 0.73711529 0.65138486
-0.8422116 -0.60268298 -0.27167349 0.043212308 0.42843503 0.41907598 0.50986322 0.73711529 0.65138486 0.50753165
-0.60268298 -0.27167349 0.043212308 0.42843503 0.41907598 0.50986322 0.73711529 0.65138486 0.50753165 0.54840182
-0.27167349 0.043212308 0.42843503 0.41907598 0.50986322 0.73711529 0.65138486 0.50753165 0.54840182 0.48530713
0.043212308 0.42843503 0.41907598 0.50986322 0.73711529 0.65138486 0.50753165 0.54840182 0.48530713 0.44250036
0.42843503 0.41907598 0.50986322 0.73711529 0.65138486 0.50753165 0.54840182 0.48530713 0.44250036 0.41950302
0.41907598 0.50986322 0.73711529 0.65138486 0.50753165 0.54840182 0.48530713 0.44250036 0.41950302 0.42099329
0.50986322 0.73711529 0.65138486 0.50753165 0.54840182 0.48530713 0.44250036 0.41950302 0.42099329 0.44422195
0.73711529 0.65138486 0.50753165 0.54840182 0.48530713 0.44250036 0.41950302 0.42099329 0.44422195 0.49148377
0.65138486 0.50753165 0.54840182 0.48530713 0.44250036 0.41950302 0.42099329 0.44422195 0.49148377 0.34982511
0.50753165 0.54840182 0.48530713 0.44250036 0.41950302 0.42099329 0.44422195 0.49148377 0.34982511 0.44492622
0.54840182 0.48530713 0.44250036 0.41950302 0.42099329 0.44422195 0.49148377 0.34982511 0.44492622 0.30543753
0.48530713 0.44250036 0.41950302 0.42099329 0.44422195 0.49148377 0.34982511 0.44492622 0.30543753 0.31988394
0.44250036 0.41950302 0.42099329 0.44422195 0.49148377 0.34982511 0.44492622 0.30543753 0.31988394 0.34194301
0.41950302 0.42099329 0.44422195 0.49148377 0.34982511 0.44492622 0.30543753 0.31988394 0.34194301 0.21074101
0.42099329 0.44422195 0.49148377 0.34982511 0.44492622 0.30543753 0.31988394 0.34194301 0.21074101 0.19134602
0.44422195 0.49148377 0.34982511 0.44492622 0.30543753 0.31988394 0.34194301 0.21074101 0.19134602 0.35677577
0.49148377 0.34982511 0.44492622 0.30543753 0.31988394 0.34194301 0.21074101 0.19134602 0.35677577 0.14262695
0.34982511 0.44492622 0.30543753 0.31988394 0.34194301 0.21074101 0.19134602 0.35677577 0.14262695 0.19375202
0.44492622 0.30543753 0.31988394 0.34194301 0.21074101 0.19134602 0.35677577 0.14262695 0.19375202 0.30562366
0.30543753 0.31988394 0.34194301 0.21074101 0.19134602 0.35677577 0.14262695 0.19375202 0.30562366 0.081876195
0.31988394 0.34194301 0.21074101 0.19134602 0.35677577 0.14262695 0.19375202 0.30562366 0.081876195 0.12666364
0.34194301 0.21074101 0.19134602 0.35677577 0.14262695 0.19375202 0.30562366 0.081876195 0.12666364 0.094116222
0.21074101 0.19134602 0.35677577 0.14262695 0.19375202 0.30562366 0.081876195 0.12666364 0.094116222 0.14380138
0.19134602 0.35677577 0.14262695 0.19375202 0.30562366 0.081876195 0.12666364 0.094116222 0.14380138 0.034175937999999996
0.35677577 0.14262695 0.19375202 0.30562366 0.081876195 0.12666364 0.094116222 0.14380138 0.034175937999999996 0.14278655
0.14262695 0.19375202 0.30562366 0.081876195 0.12666364 0.094116222 0.14380138 0.034175937999999996 0.14278655 0.069114893
0.19375202 0.30562366 0.081876195 0.12666364 0.094116222 0.14380138 0.034175937999999996 0.14278655 0.069114893 0.22675027
0.30562366 0.081876195 0.12666364 0.094116222 0.14380138 0.034175937999999996 0.14278655 0.069114893 0.22675027 0.041043601
0.081876195 0.12666364 0.094116222 0.14380138 0.034175937999999996 0.14278655 0.069114893 0.22675027 0.041043601 0.20327393
0.12666364 0.094116222 0.14380138 0.034175937999999996 0.14278655 0.069114893 0.22675027 0.041043601 0.20327393 0.14643482
0.094116222 0.14380138 0.034175937999999996 0.14278655 0.069114893 0.22675027 0.041043601 0.20327393 0.14643482 0.09692111
0.14380138 0.034175937999999996 0.14278655 0.069114893 0.22675027 0.041043601 0.20327393 0.14643482 0.09692111 0.32241503
0.034175937999999996 0.14278655 0.069114893 0.22675027 0.041043601 0.20327393 0.14643482 0.09692111 0.32241503 0.039481129
0.14278655 0.069114893 0.22675027 0.041043601 0.20327393 0.14643482 0.09692111 0.32241503 0.039481129 0.28112422
0.069114893 0.22675027 0.041043601 0.20327393 0.14643482 0.09692111 0.32241503 0.039481129 0.28112422 0.18655268
0.22675027 0.041043601 0.20327393 0.14643482 0.09692111 0.32241503 0.039481129 0.28112422 0.18655268 0.52755881
0.041043601 0.20327393 0.14643482 0.09692111 0.32241503 0.039481129 0.28112422 0.18655268 0.52755881 0.30947666
0.20327393 0.14643482 0.09692111 0.32241503 0.039481129 0.28112422 0.18655268 0.52755881 0.30947666 0.22119106
0.14643482 0.09692111 0.32241503 0.039481129 0.28112422 0.18655268 0.52755881 0.30947666 0.22119106 0.40176022
0.09692111 0.32241503 0.039481129 0.28112422 0.18655268 0.52755881 0.30947666 0.22119106 0.40176022 0.76148521
0.32241503 0.039481129 0.28112422 0.18655268 0.52755881 0.30947666 0.22119106 0.40176022 0.76148521 0.84402685
0.039481129 0.28112422 0.18655268 0.52755881 0.30947666 0.22119106 0.40176022 0.76148521 0.84402685 0.99665027
0.28112422 0.18655268 0.52755881 0.30947666 0.22119106 0.40176022 0.76148521 0.84402685 0.99665027 1.0212269
0.18655268 0.52755881 0.30947666 0.22119106 0.40176022 0.76148521 0.84402685 0.99665027 1.0212269 0.90251967
0.52755881 0.30947666 0.22119106 0.40176022 0.76148521 0.84402685 0.99665027 1.0212269 0.90251967 0.60200662
0.30947666 0.22119106 0.40176022 0.76148521 0.84402685 0.99665027 1.0212269 0.90251967 0.60200662 0.47199256
0.22119106 0.40176022 0.76148521 0.84402685 0.99665027 1.0212269 0.90251967 0.60200662 0.47199256 0.45648089
0.40176022 0.76148521 0.84402685 0.99665027 1.0212269 0.90251967 0.60200662 0.47199256 0.45648089 0.18361577
0.76148521 0.84402685 0.99665027 1.0212269 0.90251967 0.60200662 0.47199256 0.45648089 0.18361577 0.21749914
0.84402685 0.99665027 1.0212269 0.90251967 0.60200662 0.47199256 0.45648089 0.18361577 0.21749914 0.30316616
0.99665027 1.0212269 0.90251967 0.60200662 0.47199256 0.45648089 0.18361577 0.21749914 0.30316616 0.27681185
1.0212269 0.90251967 0.60200662 0.47199256 0.45648089 0.18361577 0.21749914 0.30316616 0.27681185 0.22810940000000002
0.90251967 0.60200662 0.47199256 0.45648089 0.18361577 0.21749914 0.30316616 0.27681185 0.22810940000000002 0.41509186
0.60200662 0.47199256 0.45648089 0.18361577 0.21749914 0.30316616 0.27681185 0.22810940000000002 0.41509186 0.39851671
0.47199256 0.45648089 0.18361577 0.21749914 0.30316616 0.27681185 0.22810940000000002 0.41509186 0.39851671 0.13766325
0.45648089 0.18361577 0.21749914 0.30316616 0.27681185 0.22810940000000002 0.41509186 0.39851671 0.13766325 0.26363448
0.18361577 0.21749914 0.30316616 0.27681185 0.22810940000000002 0.41509186 0.39851671 0.13766325 0.26363448 0.59589603
0.21749914 0.30316616 0.27681185 0.22810940000000002 0.41509186 0.39851671 0.13766325 0.26363448 0.59589603 0.38788459999999997
