1.8148360000000001 3.1168412 2.7093439999999998 2.2893513 0.74680004 0.34330609 1.3851768999999998 1.2283536 1.2051607 1.3629613
3.1168412 2.7093439999999998 2.2893513 0.74680004 0.34330609 1.3851768999999998 1.2283536 1.2051607 1.3629613 0.72878415
2.7093439999999998 2.2893513 0.74680004 0.34330609 1.3851768999999998 1.2283536 1.2051607 1.3629613 0.72878415 0.16295678
2.2893513 0.74680004 0.34330609 1.3851768999999998 1.2283536 1.2051607 1.3629613 0.72878415 0.16295678 -0.0080553275
0.74680004 0.34330609 1.3851768999999998 1.2283536 1.2051607 1.3629613 0.72878415 0.16295678 -0.0080553275 -0.22321765
0.34330609 1.3851768999999998 1.2283536 1.2051607 1.3629613 0.72878415 0.16295678 -0.0080553275 -0.22321765 -0.43115973
1.3851768999999998 1.2283536 1.2051607 1.3629613 0.72878415 0.16295678 -0.0080553275 -0.22321765 -0.43115973 -0.48352087
1.2283536 1.2051607 1.3629613 0.72878415 0.16295678 -0.0080553275 -0.22321765 -0.43115973 -0.48352087 -0.5467076999999999
1.2051607 1.3629613 0.72878415 0.16295678 -0.0080553275 -0.22321765 -0.43115973 -0.48352087 -0.5467076999999999 -0.85696251
1.3629613 0.72878415 0.16295678 -0.0080553275 -0.22321765 -0.43115973 -0.48352087 -0.5467076999999999 -0.85696251 -0.95103046
0.72878415 0.16295678 -0.0080553275 -0.22321765 -0.43115973 -0.48352087 -0.5467076999999999 -0.85696251 -0.95103046 -0.93978875
0.16295678 -0.0080553275 -0.22321765 -0.43115973 -0.48352087 -0.5467076999999999 -0.85696251 -0.95103046 -0.93978875 -1.0726102
-0.0080553275 -0.22321765 -0.43115973 -0.48352087 -0.5467076999999999 -0.85696251 -0.95103046 -0.93978875 -1.0726102 -1.3601239
-0.22321765 -0.43115973 -0.48352087 -0.5467076999999999 -0.85696251 -0.95103046 -0.93978875 -1.0726102 -1.3601239 -1.3413853999999998
-0.43115973 -0.48352087 -0.5467076999999999 -0.85696251 -0.95103046 -0.93978875 -1.0726102 -1.3601239 -1.3413853999999998 -1.4050711
-0.48352087 -0.5467076999999999 -0.85696251 -0.95103046 -0.93978875 -1.0726102 -1.3601239 -1.3413853999999998 -1.4050711 -1.7154323
-0.5467076999999999 -0.85696251 -0.95103046 -0.93978875 -1.0726102 -1.3601239 -1.3413853999999998 -1.4050711 -1.7154323 -1.7594169999999998
-0.85696251 -0.95103046 -0.93978875 -1.0726102 -1.3601239 -1.3413853999999998 -1.4050711 -1.7154323 -1.7594169999999998 -1.8844255
-0.95103046 -0.93978875 -1.0726102 -1.3601239 -1.3413853999999998 -1.4050711 -1.7154323 -1.7594169999999998 -1.8844255 -1.9500080000000002
-0.93978875 -1.0726102 -1.3601239 -1.3413853999999998 -1.4050711 -1.7154323 -1.7594169999999998 -1.8844255 -1.9500080000000002 -2.1831213
-1.0726102 -1.3601239 -1.3413853999999998 -1.4050711 -1.7154323 -1.7594169999999998 -1.8844255 -1.9500080000000002 -2.1831213 -2.1779467
-1.3601239 -1.3413853999999998 -1.4050711 -1.7154323 -1.7594169999999998 -1.8844255 -1.9500080000000002 -2.1831213 -2.1779467 -2.1525434
-1.3413853999999998 -1.4050711 -1.7154323 -1.7594169999999998 -1.8844255 -1.9500080000000002 -2.1831213 -2.1779467 -2.1525434 -2.0963578999999997
-1.4050711 -1.7154323 -1.7594169999999998 -1.8844255 -1.9500080000000002 -2.1831213 -2.1779467 -2.1525434 -2.0963578999999997 -2.0510521
-1.7154323 -1.7594169999999998 -1.8844255 -1.9500080000000002 -2.1831213 -2.1779467 -2.1525434 -2.0963578999999997 -2.0510521 -1.802704
-1.7594169999999998 -1.8844255 -1.9500080000000002 -2.1831213 -2.1779467 -2.1525434 -2.0963578999999997 -2.0510521 -1.802704 -1.4675531000000002
-1.8844255 -1.9500080000000002 -2.1831213 -2.1779467 -2.1525434 -2.0963578999999997 -2.0510521 -1.802704 -1.4675531000000002 -1.2232883999999997
-1.9500080000000002 -2.1831213 -2.1779467 -2.1525434 -2.0963578999999997 -2.0510521 -1.802704 -1.4675531000000002 -1.2232883999999997 -0.78604128
-2.1831213 -2.1779467 -2.1525434 -2.0963578999999997 -2.0510521 -1.802704 -1.4675531000000002 -1.2232883999999997 -0.78604128 -0.38868829
-2.1779467 -2.1525434 -2.0963578999999997 -2.0510521 -1.802704 -1.4675531000000002 -1.2232883999999997 -0.78604128 -0.38868829 -0.070863958
-2.1525434 -2.0963578999999997 -2.0510521 -1.802704 -1.4675531000000002 -1.2232883999999997 -0.78604128 -0.38868829 -0.070863958 0.15871901
-2.0963578999999997 -2.0510521 -1.802704 -1.4675531000000002 -1.2232883999999997 -0.78604128 -0.38868829 -0.070863958 0.15871901 0.39615348
-2.0510521 -1.802704 -1.4675531000000002 -1.2232883999999997 -0.78604128 -0.38868829 -0.070863958 0.15871901 0.39615348 0.60075948
-1.802704 -1.4675531000000002 -1.2232883999999997 -0.78604128 -0.38868829 -0.070863958 0.15871901 0.39615348 0.60075948 0.50987172
-1.4675531000000002 -1.2232883999999997 -0.78604128 -0.38868829 -0.070863958 0.15871901 0.39615348 0.60075948 0.50987172 0.5699061
-1.2232883999999997 -0.78604128 -0.38868829 -0.070863958 0.15871901 0.39615348 0.60075948 0.50987172 0.5699061 0.68246625
-0.78604128 -0.38868829 -0.070863958 0.15871901 0.39615348 0.60075948 0.50987172 0.5699061 0.68246625 0.52126002
-0.38868829 -0.070863958 0.15871901 0.39615348 0.60075948 0.50987172 0.5699061 0.68246625 0.52126002 0.42960377
-0.070863958 0.15871901 0.39615348 0.60075948 0.50987172 0.5699061 0.68246625 0.52126002 0.42960377 0.36043331
0.15871901 0.39615348 0.60075948 0.50987172 0.5699061 0.68246625 0.52126002 0.42960377 0.36043331 0.38969564
0.39615348 0.60075948 0.50987172 0.5699061 0.68246625 0.52126002 0.42960377 0.36043331 0.38969564 0.42090655
0.60075948 0.50987172 0.5699061 0.68246625 0.52126002 0.42960377 0.36043331 0.38969564 0.42090655 0.38012997
0.50987172 0.5699061 0.68246625 0.52126002 0.42960377 0.36043331 0.38969564 0.42090655 0.38012997 0.36076989
0.5699061 0.68246625 0.52126002 0.42960377 0.36043331 0.38969564 0.42090655 0.38012997 0.36076989 0.31933386
0.68246625 0.52126002 0.42960377 0.36043331 0.38969564 0.42090655 0.38012997 0.36076989 0.31933386 0.39643818
0.52126002 0.42960377 0.36043331 0.38969564 0.42090655 0.38012997 0.36076989 0.31933386 0.39643818 0.382826
0.42960377 0.36043331 0.38969564 0.42090655 0.38012997 0.36076989 0.31933386 0.39643818 0.382826 0.40484153
0.36043331 0.38969564 0.42090655 0.38012997 0.36076989 0.31933386 0.39643818 0.382826 0.40484153 0.58767065
0.38969564 0.42090655 0.38012997 0.36076989 0.31933386 0.39643818 0.382826 0.40484153 0.58767065 0.59500206
0.42090655 0.38012997 0.36076989 0.31933386 0.39643818 0.382826 0.40484153 0.58767065 0.59500206 0.35283927
0.38012997 0.36076989 0.31933386 0.39643818 0.382826 0.40484153 0.58767065 0.59500206 0.35283927 0.59457128
0.36076989 0.31933386 0.39643818 0.382826 0.40484153 0.58767065 0.59500206 0.35283927 0.59457128 0.52692647
0.31933386 0.39643818 0.382826 0.40484153 0.58767065 0.59500206 0.35283927 0.59457128 0.52692647 0.50865477
0.39643818 0.382826 0.40484153 0.58767065 0.59500206 0.35283927 0.59457128 0.52692647 0.50865477 0.5427347
0.382826 0.40484153 0.58767065 0.59500206 0.35283927 0.59457128 0.52692647 0.50865477 0.5427347 0.37860812
0.40484153 0.58767065 0.59500206 0.35283927 0.59457128 0.52692647 0.50865477 0.5427347 0.37860812 0.44005207
0.58767065 0.59500206 0.35283927 0.59457128 0.52692647 0.50865477 0.5427347 0.37860812 0.44005207 0.33123905
0.59500206 0.35283927 0.59457128 0.52692647 0.50865477 0.5427347 0.37860812 0.44005207 0.33123905 0.31359522
0.35283927 0.59457128 0.52692647 0.50865477 0.5427347 0.37860812 0.44005207 0.33123905 0.31359522 0.44666908
0.59457128 0.52692647 0.50865477 0.5427347 0.37860812 0.44005207 0.33123905 0.31359522 0.44666908 0.43036174
0.52692647 0.50865477 0.5427347 0.37860812 0.44005207 0.33123905 0.31359522 0.44666908 0.43036174 0.18632146
0.50865477 0.5427347 0.37860812 0.44005207 0.33123905 0.31359522 0.44666908 0.43036174 0.18632146 0.21795405
0.5427347 0.37860812 0.44005207 0.33123905 0.31359522 0.44666908 0.43036174 0.18632146 0.21795405 0.16279763
0.37860812 0.44005207 0.33123905 0.31359522 0.44666908 0.43036174 0.18632146 0.21795405 0.16279763 0.22910978
0.44005207 0.33123905 0.31359522 0.44666908 0.43036174 0.18632146 0.21795405 0.16279763 0.22910978 0.29358933
0.33123905 0.31359522 0.44666908 0.43036174 0.18632146 0.21795405 0.16279763 0.22910978 0.29358933 0.39369087
0.31359522 0.44666908 0.43036174 0.18632146 0.21795405 0.16279763 0.22910978 0.29358933 0.39369087 0.55408042
0.44666908 0.43036174 0.18632146 0.21795405 0.16279763 0.22910978 0.29358933 0.39369087 0.55408042 0.27941028
0.43036174 0.18632146 0.21795405 0.16279763 0.22910978 0.29358933 0.39369087 0.55408042 0.27941028 0.28295483
0.18632146 0.21795405 0.16279763 0.22910978 0.29358933 0.39369087 0.55408042 0.27941028 0.28295483 0.073871144
0.21795405 0.16279763 0.22910978 0.29358933 0.39369087 0.55408042 0.27941028 0.28295483 0.073871144 -0.17960444
0.16279763 0.22910978 0.29358933 0.39369087 0.55408042 0.27941028 0.28295483 0.073871144 -0.17960444 0.020608281000000003
0.22910978 0.29358933 0.39369087 0.55408042 0.27941028 0.28295483 0.073871144 -0.17960444 0.020608281000000003 -0.15176853
0.29358933 0.39369087 0.55408042 0.27941028 0.28295483 0.073871144 -0.17960444 0.020608281000000003 -0.15176853 -0.02923996
0.39369087 0.55408042 0.27941028 0.28295483 0.073871144 -0.17960444 0.020608281000000003 -0.15176853 -0.02923996 -0.09605356
0.55408042 0.27941028 0.28295483 0.073871144 -0.17960444 0.020608281000000003 -0.15176853 -0.02923996 -0.09605356 -0.07853795599999999
0.27941028 0.28295483 0.073871144 -0.17960444 0.020608281000000003 -0.15176853 -0.02923996 -0.09605356 -0.07853795599999999 0.16677821
0.28295483 0.073871144 -0.17960444 0.020608281000000003 -0.15176853 -0.02923996 -0.09605356 -0.07853795599999999 0.16677821 0.0043439165
0.073871144 -0.17960444 0.020608281000000003 -0.15176853 -0.02923996 -0.09605356 -0.07853795599999999 0.16677821 0.0043439165 -0.21732801
-0.17960444 0.020608281000000003 -0.15176853 -0.02923996 -0.09605356 -0.07853795599999999 0.16677821 0.0043439165 -0.21732801 0.094326169
0.020608281000000003 -0.15176853 -0.02923996 -0.09605356 -0.07853795599999999 0.16677821 0.0043439165 -0.21732801 0.094326169 0.10021276
-0.15176853 -0.02923996 -0.09605356 -0.07853795599999999 0.16677821 0.0043439165 -0.21732801 0.094326169 0.10021276 -0.15028811
-0.02923996 -0.09605356 -0.07853795599999999 0.16677821 0.0043439165 -0.21732801 0.094326169 0.10021276 -0.15028811 0.029410633
-0.09605356 -0.07853795599999999 0.16677821 0.0043439165 -0.21732801 0.094326169 0.10021276 -0.15028811 0.029410633 0.08780388199999999
-0.07853795599999999 0.16677821 0.0043439165 -0.21732801 0.094326169 0.10021276 -0.15028811 0.029410633 0.08780388199999999 -0.0024222663
0.16677821 0.0043439165 -0.21732801 0.094326169 0.10021276 -0.15028811 0.029410633 0.08780388199999999 -0.0024222663 0.26674696
0.0043439165 -0.21732801 0.094326169 0.10021276 -0.15028811 0.029410633 0.08780388199999999 -0.0024222663 0.26674696 0.3633978
