2.0394327000000003 1.8832346999999998 1.9093278999999999 2.4715339 1.1181386999999998 0.044438534 0.02378222 -0.18546289999999999 -0.84122924 -1.210844
1.8832346999999998 1.9093278999999999 2.4715339 1.1181386999999998 0.044438534 0.02378222 -0.18546289999999999 -0.84122924 -1.210844 -1.1649628
1.9093278999999999 2.4715339 1.1181386999999998 0.044438534 0.02378222 -0.18546289999999999 -0.84122924 -1.210844 -1.1649628 -1.3305675
2.4715339 1.1181386999999998 0.044438534 0.02378222 -0.18546289999999999 -0.84122924 -1.210844 -1.1649628 -1.3305675 -1.4505416000000002
1.1181386999999998 0.044438534 0.02378222 -0.18546289999999999 -0.84122924 -1.210844 -1.1649628 -1.3305675 -1.4505416000000002 -1.6214423
0.044438534 0.02378222 -0.18546289999999999 -0.84122924 -1.210844 -1.1649628 -1.3305675 -1.4505416000000002 -1.6214423 -1.5285523
0.02378222 -0.18546289999999999 -0.84122924 -1.210844 -1.1649628 -1.3305675 -1.4505416000000002 -1.6214423 -1.5285523 -1.6564765
-0.18546289999999999 -0.84122924 -1.210844 -1.1649628 -1.3305675 -1.4505416000000002 -1.6214423 -1.5285523 -1.6564765 -1.8499284
-0.84122924 -1.210844 -1.1649628 -1.3305675 -1.4505416000000002 -1.6214423 -1.5285523 -1.6564765 -1.8499284 -1.4444446000000002
-1.210844 -1.1649628 -1.3305675 -1.4505416000000002 -1.6214423 -1.5285523 -1.6564765 -1.8499284 -1.4444446000000002 -1.8181468
-1.1649628 -1.3305675 -1.4505416000000002 -1.6214423 -1.5285523 -1.6564765 -1.8499284 -1.4444446000000002 -1.8181468 -1.757509
-1.3305675 -1.4505416000000002 -1.6214423 -1.5285523 -1.6564765 -1.8499284 -1.4444446000000002 -1.8181468 -1.757509 -1.5500211000000002
-1.4505416000000002 -1.6214423 -1.5285523 -1.6564765 -1.8499284 -1.4444446000000002 -1.8181468 -1.757509 -1.5500211000000002 -2.0486198
-1.6214423 -1.5285523 -1.6564765 -1.8499284 -1.4444446000000002 -1.8181468 -1.757509 -1.5500211000000002 -2.0486198 -2.0674221
-1.5285523 -1.6564765 -1.8499284 -1.4444446000000002 -1.8181468 -1.757509 -1.5500211000000002 -2.0486198 -2.0674221 -1.7514358
-1.6564765 -1.8499284 -1.4444446000000002 -1.8181468 -1.757509 -1.5500211000000002 -2.0486198 -2.0674221 -1.7514358 -1.8899066999999998
-1.8499284 -1.4444446000000002 -1.8181468 -1.757509 -1.5500211000000002 -2.0486198 -2.0674221 -1.7514358 -1.8899066999999998 -1.9401666000000002
-1.4444446000000002 -1.8181468 -1.757509 -1.5500211000000002 -2.0486198 -2.0674221 -1.7514358 -1.8899066999999998 -1.9401666000000002 -1.3923952
-1.8181468 -1.757509 -1.5500211000000002 -2.0486198 -2.0674221 -1.7514358 -1.8899066999999998 -1.9401666000000002 -1.3923952 -1.2765232
-1.757509 -1.5500211000000002 -2.0486198 -2.0674221 -1.7514358 -1.8899066999999998 -1.9401666000000002 -1.3923952 -1.2765232 -0.96957959
-1.5500211000000002 -2.0486198 -2.0674221 -1.7514358 -1.8899066999999998 -1.9401666000000002 -1.3923952 -1.2765232 -0.96957959 -0.81353676
-2.0486198 -2.0674221 -1.7514358 -1.8899066999999998 -1.9401666000000002 -1.3923952 -1.2765232 -0.96957959 -0.81353676 -0.53408863
-2.0674221 -1.7514358 -1.8899066999999998 -1.9401666000000002 -1.3923952 -1.2765232 -0.96957959 -0.81353676 -0.53408863 0.18649755
-1.7514358 -1.8899066999999998 -1.9401666000000002 -1.3923952 -1.2765232 -0.96957959 -0.81353676 -0.53408863 0.18649755 0.18891511
-1.8899066999999998 -1.9401666000000002 -1.3923952 -1.2765232 -0.96957959 -0.81353676 -0.53408863 0.18649755 0.18891511 0.52785912
-1.9401666000000002 -1.3923952 -1.2765232 -0.96957959 -0.81353676 -0.53408863 0.18649755 0.18891511 0.52785912 1.0165503
-1.3923952 -1.2765232 -0.96957959 -0.81353676 -0.53408863 0.18649755 0.18891511 0.52785912 1.0165503 0.98695918
-1.2765232 -0.96957959 -0.81353676 -0.53408863 0.18649755 0.18891511 0.52785912 1.0165503 0.98695918 1.0381347
-0.96957959 -0.81353676 -0.53408863 0.18649755 0.18891511 0.52785912 1.0165503 0.98695918 1.0381347 0.90506531
-0.81353676 -0.53408863 0.18649755 0.18891511 0.52785912 1.0165503 0.98695918 1.0381347 0.90506531 0.77315071
-0.53408863 0.18649755 0.18891511 0.52785912 1.0165503 0.98695918 1.0381347 0.90506531 0.77315071 1.1705092
0.18649755 0.18891511 0.52785912 1.0165503 0.98695918 1.0381347 0.90506531 0.77315071 1.1705092 0.52910902
0.18891511 0.52785912 1.0165503 0.98695918 1.0381347 0.90506531 0.77315071 1.1705092 0.52910902 0.65706782
0.52785912 1.0165503 0.98695918 1.0381347 0.90506531 0.77315071 1.1705092 0.52910902 0.65706782 0.67812941
1.0165503 0.98695918 1.0381347 0.90506531 0.77315071 1.1705092 0.52910902 0.65706782 0.67812941 0.5179102
0.98695918 1.0381347 0.90506531 0.77315071 1.1705092 0.52910902 0.65706782 0.67812941 0.5179102 0.54165506
1.0381347 0.90506531 0.77315071 1.1705092 0.52910902 0.65706782 0.67812941 0.5179102 0.54165506 0.47090802
0.90506531 0.77315071 1.1705092 0.52910902 0.65706782 0.67812941 0.5179102 0.54165506 0.47090802 0.46793846
0.77315071 1.1705092 0.52910902 0.65706782 0.67812941 0.5179102 0.54165506 0.47090802 0.46793846 0.59913278
1.1705092 0.52910902 0.65706782 0.67812941 0.5179102 0.54165506 0.47090802 0.46793846 0.59913278 0.47387851
0.52910902 0.65706782 0.67812941 0.5179102 0.54165506 0.47090802 0.46793846 0.59913278 0.47387851 0.50290558
0.65706782 0.67812941 0.5179102 0.54165506 0.47090802 0.46793846 0.59913278 0.47387851 0.50290558 0.65981579
0.67812941 0.5179102 0.54165506 0.47090802 0.46793846 0.59913278 0.47387851 0.50290558 0.65981579 0.38413318
0.5179102 0.54165506 0.47090802 0.46793846 0.59913278 0.47387851 0.50290558 0.65981579 0.38413318 0.68218534
0.54165506 0.47090802 0.46793846 0.59913278 0.47387851 0.50290558 0.65981579 0.38413318 0.68218534 0.75604449
0.47090802 0.46793846 0.59913278 0.47387851 0.50290558 0.65981579 0.38413318 0.68218534 0.75604449 0.61435762
0.46793846 0.59913278 0.47387851 0.50290558 0.65981579 0.38413318 0.68218534 0.75604449 0.61435762 0.98529284
0.59913278 0.47387851 0.50290558 0.65981579 0.38413318 0.68218534 0.75604449 0.61435762 0.98529284 1.0581193000000002
0.47387851 0.50290558 0.65981579 0.38413318 0.68218534 0.75604449 0.61435762 0.98529284 1.0581193000000002 0.85157441
0.50290558 0.65981579 0.38413318 0.68218534 0.75604449 0.61435762 0.98529284 1.0581193000000002 0.85157441 0.53874142
0.65981579 0.38413318 0.68218534 0.75604449 0.61435762 0.98529284 1.0581193000000002 0.85157441 0.53874142 0.90249501
0.38413318 0.68218534 0.75604449 0.61435762 0.98529284 1.0581193000000002 0.85157441 0.53874142 0.90249501 0.98809047
0.68218534 0.75604449 0.61435762 0.98529284 1.0581193000000002 0.85157441 0.53874142 0.90249501 0.98809047 0.65468729
0.75604449 0.61435762 0.98529284 1.0581193000000002 0.85157441 0.53874142 0.90249501 0.98809047 0.65468729 0.58384122
0.61435762 0.98529284 1.0581193000000002 0.85157441 0.53874142 0.90249501 0.98809047 0.65468729 0.58384122 0.22025055
0.98529284 1.0581193000000002 0.85157441 0.53874142 0.90249501 0.98809047 0.65468729 0.58384122 0.22025055 0.16772921
1.0581193000000002 0.85157441 0.53874142 0.90249501 0.98809047 0.65468729 0.58384122 0.22025055 0.16772921 -0.0078476486
0.85157441 0.53874142 0.90249501 0.98809047 0.65468729 0.58384122 0.22025055 0.16772921 -0.0078476486 0.047374143
0.53874142 0.90249501 0.98809047 0.65468729 0.58384122 0.22025055 0.16772921 -0.0078476486 0.047374143 -0.13176619
0.90249501 0.98809047 0.65468729 0.58384122 0.22025055 0.16772921 -0.0078476486 0.047374143 -0.13176619 -0.060787930999999996
0.98809047 0.65468729 0.58384122 0.22025055 0.16772921 -0.0078476486 0.047374143 -0.13176619 -0.060787930999999996 0.077160185
0.65468729 0.58384122 0.22025055 0.16772921 -0.0078476486 0.047374143 -0.13176619 -0.060787930999999996 0.077160185 -0.29065653
0.58384122 0.22025055 0.16772921 -0.0078476486 0.047374143 -0.13176619 -0.060787930999999996 0.077160185 -0.29065653 -0.096476165
0.22025055 0.16772921 -0.0078476486 0.047374143 -0.13176619 -0.060787930999999996 0.077160185 -0.29065653 -0.096476165 -0.17559459
0.16772921 -0.0078476486 0.047374143 -0.13176619 -0.060787930999999996 0.077160185 -0.29065653 -0.096476165 -0.17559459 -0.17683834
-0.0078476486 0.047374143 -0.13176619 -0.060787930999999996 0.077160185 -0.29065653 -0.096476165 -0.17559459 -0.17683834 -0.26148476
0.047374143 -0.13176619 -0.060787930999999996 0.077160185 -0.29065653 -0.096476165 -0.17559459 -0.17683834 -0.26148476 -0.30170242
-0.13176619 -0.060787930999999996 0.077160185 -0.29065653 -0.096476165 -0.17559459 -0.17683834 -0.26148476 -0.30170242 -0.15769403
-0.060787930999999996 0.077160185 -0.29065653 -0.096476165 -0.17559459 -0.17683834 -0.26148476 -0.30170242 -0.15769403 -0.16105487
0.077160185 -0.29065653 -0.096476165 -0.17559459 -0.17683834 -0.26148476 -0.30170242 -0.15769403 -0.16105487 -0.27517994
-0.29065653 -0.096476165 -0.17559459 -0.17683834 -0.26148476 -0.30170242 -0.15769403 -0.16105487 -0.27517994 -0.37618733
-0.096476165 -0.17559459 -0.17683834 -0.26148476 -0.30170242 -0.15769403 -0.16105487 -0.27517994 -0.37618733 -0.10732506
-0.17559459 -0.17683834 -0.26148476 -0.30170242 -0.15769403 -0.16105487 -0.27517994 -0.37618733 -0.10732506 -0.064679581
-0.17683834 -0.26148476 -0.30170242 -0.15769403 -0.16105487 -0.27517994 -0.37618733 -0.10732506 -0.064679581 -0.20523629999999998
-0.26148476 -0.30170242 -0.15769403 -0.16105487 -0.27517994 -0.37618733 -0.10732506 -0.064679581 -0.20523629999999998 -0.087677274
-0.30170242 -0.15769403 -0.16105487 -0.27517994 -0.37618733 -0.10732506 -0.064679581 -0.20523629999999998 -0.087677274 -0.08637962
-0.15769403 -0.16105487 -0.27517994 -0.37618733 -0.10732506 -0.064679581 -0.20523629999999998 -0.087677274 -0.08637962 -0.088805668
-0.16105487 -0.27517994 -0.37618733 -0.10732506 -0.064679581 -0.20523629999999998 -0.087677274 -0.08637962 -0.088805668 0.090496632
-0.27517994 -0.37618733 -0.10732506 -0.064679581 -0.20523629999999998 -0.087677274 -0.08637962 -0.088805668 0.090496632 0.058145382
-0.37618733 -0.10732506 -0.064679581 -0.20523629999999998 -0.087677274 -0.08637962 -0.088805668 0.090496632 0.058145382 0.00035112091
-0.10732506 -0.064679581 -0.20523629999999998 -0.087677274 -0.08637962 -0.088805668 0.090496632 0.058145382 0.00035112091 0.26841067
-0.064679581 -0.20523629999999998 -0.087677274 -0.08637962 -0.088805668 0.090496632 0.058145382 0.00035112091 0.26841067 0.55995867
-0.20523629999999998 -0.087677274 -0.08637962 -0.088805668 0.090496632 0.058145382 0.00035112091 0.26841067 0.55995867 0.52745406
-0.087677274 -0.08637962 -0.088805668 0.090496632 0.058145382 0.00035112091 0.26841067 0.55995867 0.52745406 0.51000214
-0.08637962 -0.088805668 0.090496632 0.058145382 0.00035112091 0.26841067 0.55995867 0.52745406 0.51000214 0.67704666
-0.088805668 0.090496632 0.058145382 0.00035112091 0.26841067 0.55995867 0.52745406 0.51000214 0.67704666 1.2486476999999998
0.090496632 0.058145382 0.00035112091 0.26841067 0.55995867 0.52745406 0.51000214 0.67704666 1.2486476999999998 1.3726073
