0.64275558 1.9652218999999997 2.9047617000000003 2.3393422999999998 0.79156126 0.15917504 0.92527794 1.2314808000000002 1.1813325000000001 1.3698903
1.9652218999999997 2.9047617000000003 2.3393422999999998 0.79156126 0.15917504 0.92527794 1.2314808000000002 1.1813325000000001 1.3698903 0.87052383
2.9047617000000003 2.3393422999999998 0.79156126 0.15917504 0.92527794 1.2314808000000002 1.1813325000000001 1.3698903 0.87052383 -0.17245692
2.3393422999999998 0.79156126 0.15917504 0.92527794 1.2314808000000002 1.1813325000000001 1.3698903 0.87052383 -0.17245692 -0.71374715
0.79156126 0.15917504 0.92527794 1.2314808000000002 1.1813325000000001 1.3698903 0.87052383 -0.17245692 -0.71374715 -0.66787891
0.15917504 0.92527794 1.2314808000000002 1.1813325000000001 1.3698903 0.87052383 -0.17245692 -0.71374715 -0.66787891 -0.88154185
0.92527794 1.2314808000000002 1.1813325000000001 1.3698903 0.87052383 -0.17245692 -0.71374715 -0.66787891 -0.88154185 -0.88056139
1.2314808000000002 1.1813325000000001 1.3698903 0.87052383 -0.17245692 -0.71374715 -0.66787891 -0.88154185 -0.88056139 -0.93676769
1.1813325000000001 1.3698903 0.87052383 -0.17245692 -0.71374715 -0.66787891 -0.88154185 -0.88056139 -0.93676769 -1.0415576
1.3698903 0.87052383 -0.17245692 -0.71374715 -0.66787891 -0.88154185 -0.88056139 -0.93676769 -1.0415576 -1.1711791999999999
0.87052383 -0.17245692 -0.71374715 -0.66787891 -0.88154185 -0.88056139 -0.93676769 -1.0415576 -1.1711791999999999 -1.0859123
-0.17245692 -0.71374715 -0.66787891 -0.88154185 -0.88056139 -0.93676769 -1.0415576 -1.1711791999999999 -1.0859123 -1.124883
-0.71374715 -0.66787891 -0.88154185 -0.88056139 -0.93676769 -1.0415576 -1.1711791999999999 -1.0859123 -1.124883 -1.3186066
-0.66787891 -0.88154185 -0.88056139 -0.93676769 -1.0415576 -1.1711791999999999 -1.0859123 -1.124883 -1.3186066 -1.4501196
-0.88154185 -0.88056139 -0.93676769 -1.0415576 -1.1711791999999999 -1.0859123 -1.124883 -1.3186066 -1.4501196 -1.4573616000000003
-0.88056139 -0.93676769 -1.0415576 -1.1711791999999999 -1.0859123 -1.124883 -1.3186066 -1.4501196 -1.4573616000000003 -1.4785816
-0.93676769 -1.0415576 -1.1711791999999999 -1.0859123 -1.124883 -1.3186066 -1.4501196 -1.4573616000000003 -1.4785816 -1.6753871999999999
-1.0415576 -1.1711791999999999 -1.0859123 -1.124883 -1.3186066 -1.4501196 -1.4573616000000003 -1.4785816 -1.6753871999999999 -1.7290109
-1.1711791999999999 -1.0859123 -1.124883 -1.3186066 -1.4501196 -1.4573616000000003 -1.4785816 -1.6753871999999999 -1.7290109 -2.0020133999999996
-1.0859123 -1.124883 -1.3186066 -1.4501196 -1.4573616000000003 -1.4785816 -1.6753871999999999 -1.7290109 -2.0020133999999996 -2.0563651000000003
-1.124883 -1.3186066 -1.4501196 -1.4573616000000003 -1.4785816 -1.6753871999999999 -1.7290109 -2.0020133999999996 -2.0563651000000003 -2.0999205
-1.3186066 -1.4501196 -1.4573616000000003 -1.4785816 -1.6753871999999999 -1.7290109 -2.0020133999999996 -2.0563651000000003 -2.0999205 -2.1468928
-1.4501196 -1.4573616000000003 -1.4785816 -1.6753871999999999 -1.7290109 -2.0020133999999996 -2.0563651000000003 -2.0999205 -2.1468928 -2.0228336
-1.4573616000000003 -1.4785816 -1.6753871999999999 -1.7290109 -2.0020133999999996 -2.0563651000000003 -2.0999205 -2.1468928 -2.0228336 -2.0071527
-1.4785816 -1.6753871999999999 -1.7290109 -2.0020133999999996 -2.0563651000000003 -2.0999205 -2.1468928 -2.0228336 -2.0071527 -2.0073806
-1.6753871999999999 -1.7290109 -2.0020133999999996 -2.0563651000000003 -2.0999205 -2.1468928 -2.0228336 -2.0071527 -2.0073806 -1.5996686000000002
-1.7290109 -2.0020133999999996 -2.0563651000000003 -2.0999205 -2.1468928 -2.0228336 -2.0071527 -2.0073806 -1.5996686000000002 -1.2477127000000001
-2.0020133999999996 -2.0563651000000003 -2.0999205 -2.1468928 -2.0228336 -2.0071527 -2.0073806 -1.5996686000000002 -1.2477127000000001 -1.0342535
-2.0563651000000003 -2.0999205 -2.1468928 -2.0228336 -2.0071527 -2.0073806 -1.5996686000000002 -1.2477127000000001 -1.0342535 -0.58500925
-2.0999205 -2.1468928 -2.0228336 -2.0071527 -2.0073806 -1.5996686000000002 -1.2477127000000001 -1.0342535 -0.58500925 -0.23800356
-2.1468928 -2.0228336 -2.0071527 -2.0073806 -1.5996686000000002 -1.2477127000000001 -1.0342535 -0.58500925 -0.23800356 0.048785229000000006
-2.0228336 -2.0071527 -2.0073806 -1.5996686000000002 -1.2477127000000001 -1.0342535 -0.58500925 -0.23800356 0.048785229000000006 0.27357824
-2.0071527 -2.0073806 -1.5996686000000002 -1.2477127000000001 -1.0342535 -0.58500925 -0.23800356 0.048785229000000006 0.27357824 0.41882652
-2.0073806 -1.5996686000000002 -1.2477127000000001 -1.0342535 -0.58500925 -0.23800356 0.048785229000000006 0.27357824 0.41882652 0.6427489000000001
-1.5996686000000002 -1.2477127000000001 -1.0342535 -0.58500925 -0.23800356 0.048785229000000006 0.27357824 0.41882652 0.6427489000000001 0.68399842
-1.2477127000000001 -1.0342535 -0.58500925 -0.23800356 0.048785229000000006 0.27357824 0.41882652 0.6427489000000001 0.68399842 0.703198
-1.0342535 -0.58500925 -0.23800356 0.048785229000000006 0.27357824 0.41882652 0.6427489000000001 0.68399842 0.703198 0.78272938
-0.58500925 -0.23800356 0.048785229000000006 0.27357824 0.41882652 0.6427489000000001 0.68399842 0.703198 0.78272938 0.75175976
-0.23800356 0.048785229000000006 0.27357824 0.41882652 0.6427489000000001 0.68399842 0.703198 0.78272938 0.75175976 0.63880201
0.048785229000000006 0.27357824 0.41882652 0.6427489000000001 0.68399842 0.703198 0.78272938 0.75175976 0.63880201 0.58432399
0.27357824 0.41882652 0.6427489000000001 0.68399842 0.703198 0.78272938 0.75175976 0.63880201 0.58432399 0.66918217
0.41882652 0.6427489000000001 0.68399842 0.703198 0.78272938 0.75175976 0.63880201 0.58432399 0.66918217 0.63540721
0.6427489000000001 0.68399842 0.703198 0.78272938 0.75175976 0.63880201 0.58432399 0.66918217 0.63540721 0.5926714
0.68399842 0.703198 0.78272938 0.75175976 0.63880201 0.58432399 0.66918217 0.63540721 0.5926714 0.62951558
0.703198 0.78272938 0.75175976 0.63880201 0.58432399 0.66918217 0.63540721 0.5926714 0.62951558 0.63588582
0.78272938 0.75175976 0.63880201 0.58432399 0.66918217 0.63540721 0.5926714 0.62951558 0.63588582 0.5999116999999999
0.75175976 0.63880201 0.58432399 0.66918217 0.63540721 0.5926714 0.62951558 0.63588582 0.5999116999999999 0.51703759
0.63880201 0.58432399 0.66918217 0.63540721 0.5926714 0.62951558 0.63588582 0.5999116999999999 0.51703759 0.62038759
0.58432399 0.66918217 0.63540721 0.5926714 0.62951558 0.63588582 0.5999116999999999 0.51703759 0.62038759 0.54816639
0.66918217 0.63540721 0.5926714 0.62951558 0.63588582 0.5999116999999999 0.51703759 0.62038759 0.54816639 0.59089917
0.63540721 0.5926714 0.62951558 0.63588582 0.5999116999999999 0.51703759 0.62038759 0.54816639 0.59089917 0.48709892
0.5926714 0.62951558 0.63588582 0.5999116999999999 0.51703759 0.62038759 0.54816639 0.59089917 0.48709892 0.51182843
0.62951558 0.63588582 0.5999116999999999 0.51703759 0.62038759 0.54816639 0.59089917 0.48709892 0.51182843 0.51280847
0.63588582 0.5999116999999999 0.51703759 0.62038759 0.54816639 0.59089917 0.48709892 0.51182843 0.51280847 0.41523838
0.5999116999999999 0.51703759 0.62038759 0.54816639 0.59089917 0.48709892 0.51182843 0.51280847 0.41523838 0.38768122
0.51703759 0.62038759 0.54816639 0.59089917 0.48709892 0.51182843 0.51280847 0.41523838 0.38768122 0.32056127
0.62038759 0.54816639 0.59089917 0.48709892 0.51182843 0.51280847 0.41523838 0.38768122 0.32056127 0.44472826
0.54816639 0.59089917 0.48709892 0.51182843 0.51280847 0.41523838 0.38768122 0.32056127 0.44472826 0.34956381
0.59089917 0.48709892 0.51182843 0.51280847 0.41523838 0.38768122 0.32056127 0.44472826 0.34956381 0.35382241
0.48709892 0.51182843 0.51280847 0.41523838 0.38768122 0.32056127 0.44472826 0.34956381 0.35382241 0.46867739
0.51182843 0.51280847 0.41523838 0.38768122 0.32056127 0.44472826 0.34956381 0.35382241 0.46867739 0.33019947
0.51280847 0.41523838 0.38768122 0.32056127 0.44472826 0.34956381 0.35382241 0.46867739 0.33019947 0.40549274
0.41523838 0.38768122 0.32056127 0.44472826 0.34956381 0.35382241 0.46867739 0.33019947 0.40549274 0.42792223
0.38768122 0.32056127 0.44472826 0.34956381 0.35382241 0.46867739 0.33019947 0.40549274 0.42792223 0.41080052
0.32056127 0.44472826 0.34956381 0.35382241 0.46867739 0.33019947 0.40549274 0.42792223 0.41080052 0.5894265000000001
0.44472826 0.34956381 0.35382241 0.46867739 0.33019947 0.40549274 0.42792223 0.41080052 0.5894265000000001 0.76784519
0.34956381 0.35382241 0.46867739 0.33019947 0.40549274 0.42792223 0.41080052 0.5894265000000001 0.76784519 0.86361692
0.35382241 0.46867739 0.33019947 0.40549274 0.42792223 0.41080052 0.5894265000000001 0.76784519 0.86361692 0.62072789
0.46867739 0.33019947 0.40549274 0.42792223 0.41080052 0.5894265000000001 0.76784519 0.86361692 0.62072789 0.52610389
0.33019947 0.40549274 0.42792223 0.41080052 0.5894265000000001 0.76784519 0.86361692 0.62072789 0.52610389 0.43976640000000006
0.40549274 0.42792223 0.41080052 0.5894265000000001 0.76784519 0.86361692 0.62072789 0.52610389 0.43976640000000006 0.13778017
0.42792223 0.41080052 0.5894265000000001 0.76784519 0.86361692 0.62072789 0.52610389 0.43976640000000006 0.13778017 0.1135003
0.41080052 0.5894265000000001 0.76784519 0.86361692 0.62072789 0.52610389 0.43976640000000006 0.13778017 0.1135003 0.10893713
0.5894265000000001 0.76784519 0.86361692 0.62072789 0.52610389 0.43976640000000006 0.13778017 0.1135003 0.10893713 0.13049494
0.76784519 0.86361692 0.62072789 0.52610389 0.43976640000000006 0.13778017 0.1135003 0.10893713 0.13049494 0.061247792
0.86361692 0.62072789 0.52610389 0.43976640000000006 0.13778017 0.1135003 0.10893713 0.13049494 0.061247792 0.078585303
0.62072789 0.52610389 0.43976640000000006 0.13778017 0.1135003 0.10893713 0.13049494 0.061247792 0.078585303 0.077828845
0.52610389 0.43976640000000006 0.13778017 0.1135003 0.10893713 0.13049494 0.061247792 0.078585303 0.077828845 0.079985449
0.43976640000000006 0.13778017 0.1135003 0.10893713 0.13049494 0.061247792 0.078585303 0.077828845 0.079985449 -0.10907211
0.13778017 0.1135003 0.10893713 0.13049494 0.061247792 0.078585303 0.077828845 0.079985449 -0.10907211 0.065845599
0.1135003 0.10893713 0.13049494 0.061247792 0.078585303 0.077828845 0.079985449 -0.10907211 0.065845599 0.10818746
0.10893713 0.13049494 0.061247792 0.078585303 0.077828845 0.079985449 -0.10907211 0.065845599 0.10818746 -0.047369804
0.13049494 0.061247792 0.078585303 0.077828845 0.079985449 -0.10907211 0.065845599 0.10818746 -0.047369804 -0.098171324
0.061247792 0.078585303 0.077828845 0.079985449 -0.10907211 0.065845599 0.10818746 -0.047369804 -0.098171324 -0.021278626000000002
0.078585303 0.077828845 0.079985449 -0.10907211 0.065845599 0.10818746 -0.047369804 -0.098171324 -0.021278626000000002 0.092690157
0.077828845 0.079985449 -0.10907211 0.065845599 0.10818746 -0.047369804 -0.098171324 -0.021278626000000002 0.092690157 0.12069088
0.079985449 -0.10907211 0.065845599 0.10818746 -0.047369804 -0.098171324 -0.021278626000000002 0.092690157 0.12069088 0.34982908
