0.50691007 1.6370345 3.1547647 1.7402818 1.8124405 0.6171909000000001 -1.3848904 -0.25466994 0.50182027 0.15305764
1.6370345 3.1547647 1.7402818 1.8124405 0.6171909000000001 -1.3848904 -0.25466994 0.50182027 0.15305764 -0.075266957
3.1547647 1.7402818 1.8124405 0.6171909000000001 -1.3848904 -0.25466994 0.50182027 0.15305764 -0.075266957 0.10883743
1.7402818 1.8124405 0.6171909000000001 -1.3848904 -0.25466994 0.50182027 0.15305764 -0.075266957 0.10883743 -0.20001468
1.8124405 0.6171909000000001 -1.3848904 -0.25466994 0.50182027 0.15305764 -0.075266957 0.10883743 -0.20001468 -0.71551966
0.6171909000000001 -1.3848904 -0.25466994 0.50182027 0.15305764 -0.075266957 0.10883743 -0.20001468 -0.71551966 -0.94438292
-1.3848904 -0.25466994 0.50182027 0.15305764 -0.075266957 0.10883743 -0.20001468 -0.71551966 -0.94438292 -0.79628119
-0.25466994 0.50182027 0.15305764 -0.075266957 0.10883743 -0.20001468 -0.71551966 -0.94438292 -0.79628119 -0.97295135
0.50182027 0.15305764 -0.075266957 0.10883743 -0.20001468 -0.71551966 -0.94438292 -0.79628119 -0.97295135 -1.1058691999999999
0.15305764 -0.075266957 0.10883743 -0.20001468 -0.71551966 -0.94438292 -0.79628119 -0.97295135 -1.1058691999999999 -1.1303803
-0.075266957 0.10883743 -0.20001468 -0.71551966 -0.94438292 -0.79628119 -0.97295135 -1.1058691999999999 -1.1303803 -1.3637825000000001
0.10883743 -0.20001468 -0.71551966 -0.94438292 -0.79628119 -0.97295135 -1.1058691999999999 -1.1303803 -1.3637825000000001 -1.1810593
-0.20001468 -0.71551966 -0.94438292 -0.79628119 -0.97295135 -1.1058691999999999 -1.1303803 -1.3637825000000001 -1.1810593 -1.350292
-0.71551966 -0.94438292 -0.79628119 -0.97295135 -1.1058691999999999 -1.1303803 -1.3637825000000001 -1.1810593 -1.350292 -1.6052023000000002
-0.94438292 -0.79628119 -0.97295135 -1.1058691999999999 -1.1303803 -1.3637825000000001 -1.1810593 -1.350292 -1.6052023000000002 -1.4906852
-0.79628119 -0.97295135 -1.1058691999999999 -1.1303803 -1.3637825000000001 -1.1810593 -1.350292 -1.6052023000000002 -1.4906852 -1.6388467
-0.97295135 -1.1058691999999999 -1.1303803 -1.3637825000000001 -1.1810593 -1.350292 -1.6052023000000002 -1.4906852 -1.6388467 -1.7028306
-1.1058691999999999 -1.1303803 -1.3637825000000001 -1.1810593 -1.350292 -1.6052023000000002 -1.4906852 -1.6388467 -1.7028306 -1.9761218999999997
-1.1303803 -1.3637825000000001 -1.1810593 -1.350292 -1.6052023000000002 -1.4906852 -1.6388467 -1.7028306 -1.9761218999999997 -1.9501127
-1.3637825000000001 -1.1810593 -1.350292 -1.6052023000000002 -1.4906852 -1.6388467 -1.7028306 -1.9761218999999997 -1.9501127 -1.860538
-1.1810593 -1.350292 -1.6052023000000002 -1.4906852 -1.6388467 -1.7028306 -1.9761218999999997 -1.9501127 -1.860538 -2.3427803
-1.350292 -1.6052023000000002 -1.4906852 -1.6388467 -1.7028306 -1.9761218999999997 -1.9501127 -1.860538 -2.3427803 -1.9823785
-1.6052023000000002 -1.4906852 -1.6388467 -1.7028306 -1.9761218999999997 -1.9501127 -1.860538 -2.3427803 -1.9823785 -1.5832168
-1.4906852 -1.6388467 -1.7028306 -1.9761218999999997 -1.9501127 -1.860538 -2.3427803 -1.9823785 -1.5832168 -1.8470533
-1.6388467 -1.7028306 -1.9761218999999997 -1.9501127 -1.860538 -2.3427803 -1.9823785 -1.5832168 -1.8470533 -1.6819993000000002
-1.7028306 -1.9761218999999997 -1.9501127 -1.860538 -2.3427803 -1.9823785 -1.5832168 -1.8470533 -1.6819993000000002 -1.4608290000000002
-1.9761218999999997 -1.9501127 -1.860538 -2.3427803 -1.9823785 -1.5832168 -1.8470533 -1.6819993000000002 -1.4608290000000002 -1.297685
-1.9501127 -1.860538 -2.3427803 -1.9823785 -1.5832168 -1.8470533 -1.6819993000000002 -1.4608290000000002 -1.297685 -0.55792946
-1.860538 -2.3427803 -1.9823785 -1.5832168 -1.8470533 -1.6819993000000002 -1.4608290000000002 -1.297685 -0.55792946 -0.38096737
-2.3427803 -1.9823785 -1.5832168 -1.8470533 -1.6819993000000002 -1.4608290000000002 -1.297685 -0.55792946 -0.38096737 -0.31140389
-1.9823785 -1.5832168 -1.8470533 -1.6819993000000002 -1.4608290000000002 -1.297685 -0.55792946 -0.38096737 -0.31140389 0.35315849
-1.5832168 -1.8470533 -1.6819993000000002 -1.4608290000000002 -1.297685 -0.55792946 -0.38096737 -0.31140389 0.35315849 0.31504798
-1.8470533 -1.6819993000000002 -1.4608290000000002 -1.297685 -0.55792946 -0.38096737 -0.31140389 0.35315849 0.31504798 0.62621748
-1.6819993000000002 -1.4608290000000002 -1.297685 -0.55792946 -0.38096737 -0.31140389 0.35315849 0.31504798 0.62621748 1.0197581
-1.4608290000000002 -1.297685 -0.55792946 -0.38096737 -0.31140389 0.35315849 0.31504798 0.62621748 1.0197581 0.81318743
-1.297685 -0.55792946 -0.38096737 -0.31140389 0.35315849 0.31504798 0.62621748 1.0197581 0.81318743 1.0338337
-0.55792946 -0.38096737 -0.31140389 0.35315849 0.31504798 0.62621748 1.0197581 0.81318743 1.0338337 1.0255161
-0.38096737 -0.31140389 0.35315849 0.31504798 0.62621748 1.0197581 0.81318743 1.0338337 1.0255161 1.0324445
-0.31140389 0.35315849 0.31504798 0.62621748 1.0197581 0.81318743 1.0338337 1.0255161 1.0324445 1.1787538
0.35315849 0.31504798 0.62621748 1.0197581 0.81318743 1.0338337 1.0255161 1.0324445 1.1787538 0.74439326
0.31504798 0.62621748 1.0197581 0.81318743 1.0338337 1.0255161 1.0324445 1.1787538 0.74439326 0.81744116
0.62621748 1.0197581 0.81318743 1.0338337 1.0255161 1.0324445 1.1787538 0.74439326 0.81744116 0.88087733
1.0197581 0.81318743 1.0338337 1.0255161 1.0324445 1.1787538 0.74439326 0.81744116 0.88087733 0.57845734
0.81318743 1.0338337 1.0255161 1.0324445 1.1787538 0.74439326 0.81744116 0.88087733 0.57845734 0.78842673
1.0338337 1.0255161 1.0324445 1.1787538 0.74439326 0.81744116 0.88087733 0.57845734 0.78842673 0.63660987
1.0255161 1.0324445 1.1787538 0.74439326 0.81744116 0.88087733 0.57845734 0.78842673 0.63660987 0.41239616
1.0324445 1.1787538 0.74439326 0.81744116 0.88087733 0.57845734 0.78842673 0.63660987 0.41239616 0.61823917
1.1787538 0.74439326 0.81744116 0.88087733 0.57845734 0.78842673 0.63660987 0.41239616 0.61823917 0.64190446
0.74439326 0.81744116 0.88087733 0.57845734 0.78842673 0.63660987 0.41239616 0.61823917 0.64190446 0.64007398
0.81744116 0.88087733 0.57845734 0.78842673 0.63660987 0.41239616 0.61823917 0.64190446 0.64007398 0.48912123
0.88087733 0.57845734 0.78842673 0.63660987 0.41239616 0.61823917 0.64190446 0.64007398 0.48912123 0.41201203
0.57845734 0.78842673 0.63660987 0.41239616 0.61823917 0.64190446 0.64007398 0.48912123 0.41201203 0.67667731
0.78842673 0.63660987 0.41239616 0.61823917 0.64190446 0.64007398 0.48912123 0.41201203 0.67667731 0.52389415
0.63660987 0.41239616 0.61823917 0.64190446 0.64007398 0.48912123 0.41201203 0.67667731 0.52389415 0.49946967
0.41239616 0.61823917 0.64190446 0.64007398 0.48912123 0.41201203 0.67667731 0.52389415 0.49946967 0.34044937
0.61823917 0.64190446 0.64007398 0.48912123 0.41201203 0.67667731 0.52389415 0.49946967 0.34044937 0.36466982
0.64190446 0.64007398 0.48912123 0.41201203 0.67667731 0.52389415 0.49946967 0.34044937 0.36466982 0.54217614
0.64007398 0.48912123 0.41201203 0.67667731 0.52389415 0.49946967 0.34044937 0.36466982 0.54217614 0.37836208
0.48912123 0.41201203 0.67667731 0.52389415 0.49946967 0.34044937 0.36466982 0.54217614 0.37836208 0.46030085
0.41201203 0.67667731 0.52389415 0.49946967 0.34044937 0.36466982 0.54217614 0.37836208 0.46030085 0.23009651
0.67667731 0.52389415 0.49946967 0.34044937 0.36466982 0.54217614 0.37836208 0.46030085 0.23009651 0.49426611
0.52389415 0.49946967 0.34044937 0.36466982 0.54217614 0.37836208 0.46030085 0.23009651 0.49426611 0.3347966
0.49946967 0.34044937 0.36466982 0.54217614 0.37836208 0.46030085 0.23009651 0.49426611 0.3347966 0.15980891
0.34044937 0.36466982 0.54217614 0.37836208 0.46030085 0.23009651 0.49426611 0.3347966 0.15980891 0.67293695
0.36466982 0.54217614 0.37836208 0.46030085 0.23009651 0.49426611 0.3347966 0.15980891 0.67293695 0.77501505
0.54217614 0.37836208 0.46030085 0.23009651 0.49426611 0.3347966 0.15980891 0.67293695 0.77501505 0.97858472
0.37836208 0.46030085 0.23009651 0.49426611 0.3347966 0.15980891 0.67293695 0.77501505 0.97858472 0.82089194
0.46030085 0.23009651 0.49426611 0.3347966 0.15980891 0.67293695 0.77501505 0.97858472 0.82089194 0.55729331
0.23009651 0.49426611 0.3347966 0.15980891 0.67293695 0.77501505 0.97858472 0.82089194 0.55729331 0.69978204
0.49426611 0.3347966 0.15980891 0.67293695 0.77501505 0.97858472 0.82089194 0.55729331 0.69978204 0.50512919
0.3347966 0.15980891 0.67293695 0.77501505 0.97858472 0.82089194 0.55729331 0.69978204 0.50512919 0.30667784
0.15980891 0.67293695 0.77501505 0.97858472 0.82089194 0.55729331 0.69978204 0.50512919 0.30667784 0.17112097
0.67293695 0.77501505 0.97858472 0.82089194 0.55729331 0.69978204 0.50512919 0.30667784 0.17112097 0.11584739999999999
0.77501505 0.97858472 0.82089194 0.55729331 0.69978204 0.50512919 0.30667784 0.17112097 0.11584739999999999 0.13145495
0.97858472 0.82089194 0.55729331 0.69978204 0.50512919 0.30667784 0.17112097 0.11584739999999999 0.13145495 0.16102571
0.82089194 0.55729331 0.69978204 0.50512919 0.30667784 0.17112097 0.11584739999999999 0.13145495 0.16102571 0.0099787414
0.55729331 0.69978204 0.50512919 0.30667784 0.17112097 0.11584739999999999 0.13145495 0.16102571 0.0099787414 0.10865763
0.69978204 0.50512919 0.30667784 0.17112097 0.11584739999999999 0.13145495 0.16102571 0.0099787414 0.10865763 0.048930083
0.50512919 0.30667784 0.17112097 0.11584739999999999 0.13145495 0.16102571 0.0099787414 0.10865763 0.048930083 -0.014351457
0.30667784 0.17112097 0.11584739999999999 0.13145495 0.16102571 0.0099787414 0.10865763 0.048930083 -0.014351457 0.031855509
0.17112097 0.11584739999999999 0.13145495 0.16102571 0.0099787414 0.10865763 0.048930083 -0.014351457 0.031855509 0.13921050000000001
0.11584739999999999 0.13145495 0.16102571 0.0099787414 0.10865763 0.048930083 -0.014351457 0.031855509 0.13921050000000001 0.1782655
0.13145495 0.16102571 0.0099787414 0.10865763 0.048930083 -0.014351457 0.031855509 0.13921050000000001 0.1782655 -0.10442321
0.16102571 0.0099787414 0.10865763 0.048930083 -0.014351457 0.031855509 0.13921050000000001 0.1782655 -0.10442321 0.10132481
0.0099787414 0.10865763 0.048930083 -0.014351457 0.031855509 0.13921050000000001 0.1782655 -0.10442321 0.10132481 0.21106243
0.10865763 0.048930083 -0.014351457 0.031855509 0.13921050000000001 0.1782655 -0.10442321 0.10132481 0.21106243 0.041465507
0.048930083 -0.014351457 0.031855509 0.13921050000000001 0.1782655 -0.10442321 0.10132481 0.21106243 0.041465507 0.20302910000000002
