1.2050062 2.0318554 2.4472937000000003 2.7394479 2.7458899 2.2763553 1.5253659 0.76059655 0.18844767 -0.029051462000000004
2.0318554 2.4472937000000003 2.7394479 2.7458899 2.2763553 1.5253659 0.76059655 0.18844767 -0.029051462000000004 -0.049523678
2.4472937000000003 2.7394479 2.7458899 2.2763553 1.5253659 0.76059655 0.18844767 -0.029051462000000004 -0.049523678 -0.20996418
2.7394479 2.7458899 2.2763553 1.5253659 0.76059655 0.18844767 -0.029051462000000004 -0.049523678 -0.20996418 -0.37415034
2.7458899 2.2763553 1.5253659 0.76059655 0.18844767 -0.029051462000000004 -0.049523678 -0.20996418 -0.37415034 -0.24863758
2.2763553 1.5253659 0.76059655 0.18844767 -0.029051462000000004 -0.049523678 -0.20996418 -0.37415034 -0.24863758 -0.09501668199999999
1.5253659 0.76059655 0.18844767 -0.029051462000000004 -0.049523678 -0.20996418 -0.37415034 -0.24863758 -0.09501668199999999 -0.099479162
0.76059655 0.18844767 -0.029051462000000004 -0.049523678 -0.20996418 -0.37415034 -0.24863758 -0.09501668199999999 -0.099479162 -0.12141585
0.18844767 -0.029051462000000004 -0.049523678 -0.20996418 -0.37415034 -0.24863758 -0.09501668199999999 -0.099479162 -0.12141585 -0.35854858
-0.029051462000000004 -0.049523678 -0.20996418 -0.37415034 -0.24863758 -0.09501668199999999 -0.099479162 -0.12141585 -0.35854858 -0.73913476
-0.049523678 -0.20996418 -0.37415034 -0.24863758 -0.09501668199999999 -0.099479162 -0.12141585 -0.35854858 -0.73913476 -0.78765165
-0.20996418 -0.37415034 -0.24863758 -0.09501668199999999 -0.099479162 -0.12141585 -0.35854858 -0.73913476 -0.78765165 -0.70894109
-0.37415034 -0.24863758 -0.09501668199999999 -0.099479162 -0.12141585 -0.35854858 -0.73913476 -0.78765165 -0.70894109 -0.75975595
-0.24863758 -0.09501668199999999 -0.099479162 -0.12141585 -0.35854858 -0.73913476 -0.78765165 -0.70894109 -0.75975595 -0.74105769
-0.09501668199999999 -0.099479162 -0.12141585 -0.35854858 -0.73913476 -0.78765165 -0.70894109 -0.75975595 -0.74105769 -0.88170685
-0.099479162 -0.12141585 -0.35854858 -0.73913476 -0.78765165 -0.70894109 -0.75975595 -0.74105769 -0.88170685 -1.0189059999999999
-0.12141585 -0.35854858 -0.73913476 -0.78765165 -0.70894109 -0.75975595 -0.74105769 -0.88170685 -1.0189059999999999 -0.58138267
-0.35854858 -0.73913476 -0.78765165 -0.70894109 -0.75975595 -0.74105769 -0.88170685 -1.0189059999999999 -0.58138267 -0.35899328
-0.73913476 -0.78765165 -0.70894109 -0.75975595 -0.74105769 -0.88170685 -1.0189059999999999 -0.58138267 -0.35899328 -0.92421814
-0.78765165 -0.70894109 -0.75975595 -0.74105769 -0.88170685 -1.0189059999999999 -0.58138267 -0.35899328 -0.92421814 -1.0948084999999999
-0.70894109 -0.75975595 -0.74105769 -0.88170685 -1.0189059999999999 -0.58138267 -0.35899328 -0.92421814 -1.0948084999999999 -0.66136445
-0.75975595 -0.74105769 -0.88170685 -1.0189059999999999 -0.58138267 -0.35899328 -0.92421814 -1.0948084999999999 -0.66136445 -0.78512404
-0.74105769 -0.88170685 -1.0189059999999999 -0.58138267 -0.35899328 -0.92421814 -1.0948084999999999 -0.66136445 -0.78512404 -1.2881566
-0.88170685 -1.0189059999999999 -0.58138267 -0.35899328 -0.92421814 -1.0948084999999999 -0.66136445 -0.78512404 -1.2881566 -1.3345034
-1.0189059999999999 -0.58138267 -0.35899328 -0.92421814 -1.0948084999999999 -0.66136445 -0.78512404 -1.2881566 -1.3345034 -1.267791
-0.58138267 -0.35899328 -0.92421814 -1.0948084999999999 -0.66136445 -0.78512404 -1.2881566 -1.3345034 -1.267791 -1.5021425
-0.35899328 -0.92421814 -1.0948084999999999 -0.66136445 -0.78512404 -1.2881566 -1.3345034 -1.267791 -1.5021425 -1.6399716
-0.92421814 -1.0948084999999999 -0.66136445 -0.78512404 -1.2881566 -1.3345034 -1.267791 -1.5021425 -1.6399716 -1.5339625
-1.0948084999999999 -0.66136445 -0.78512404 -1.2881566 -1.3345034 -1.267791 -1.5021425 -1.6399716 -1.5339625 -1.566857
-0.66136445 -0.78512404 -1.2881566 -1.3345034 -1.267791 -1.5021425 -1.6399716 -1.5339625 -1.566857 -1.7309945
-0.78512404 -1.2881566 -1.3345034 -1.267791 -1.5021425 -1.6399716 -1.5339625 -1.566857 -1.7309945 -1.7196664000000002
-1.2881566 -1.3345034 -1.267791 -1.5021425 -1.6399716 -1.5339625 -1.566857 -1.7309945 -1.7196664000000002 -1.6684945
-1.3345034 -1.267791 -1.5021425 -1.6399716 -1.5339625 -1.566857 -1.7309945 -1.7196664000000002 -1.6684945 -1.7355071
-1.267791 -1.5021425 -1.6399716 -1.5339625 -1.566857 -1.7309945 -1.7196664000000002 -1.6684945 -1.7355071 -1.6472868999999999
-1.5021425 -1.6399716 -1.5339625 -1.566857 -1.7309945 -1.7196664000000002 -1.6684945 -1.7355071 -1.6472868999999999 -1.3875587999999999
-1.6399716 -1.5339625 -1.566857 -1.7309945 -1.7196664000000002 -1.6684945 -1.7355071 -1.6472868999999999 -1.3875587999999999 -1.3096055
-1.5339625 -1.566857 -1.7309945 -1.7196664000000002 -1.6684945 -1.7355071 -1.6472868999999999 -1.3875587999999999 -1.3096055 -1.3196536
-1.566857 -1.7309945 -1.7196664000000002 -1.6684945 -1.7355071 -1.6472868999999999 -1.3875587999999999 -1.3096055 -1.3196536 -1.1003919
-1.7309945 -1.7196664000000002 -1.6684945 -1.7355071 -1.6472868999999999 -1.3875587999999999 -1.3096055 -1.3196536 -1.1003919 -0.90045831
-1.7196664000000002 -1.6684945 -1.7355071 -1.6472868999999999 -1.3875587999999999 -1.3096055 -1.3196536 -1.1003919 -0.90045831 -0.93434224
-1.6684945 -1.7355071 -1.6472868999999999 -1.3875587999999999 -1.3096055 -1.3196536 -1.1003919 -0.90045831 -0.93434224 -0.76519269
-1.7355071 -1.6472868999999999 -1.3875587999999999 -1.3096055 -1.3196536 -1.1003919 -0.90045831 -0.93434224 -0.76519269 -0.31750385
-1.6472868999999999 -1.3875587999999999 -1.3096055 -1.3196536 -1.1003919 -0.90045831 -0.93434224 -0.76519269 -0.31750385 -0.12712004
-1.3875587999999999 -1.3096055 -1.3196536 -1.1003919 -0.90045831 -0.93434224 -0.76519269 -0.31750385 -0.12712004 -0.12393914
-1.3096055 -1.3196536 -1.1003919 -0.90045831 -0.93434224 -0.76519269 -0.31750385 -0.12712004 -0.12393914 0.09441790900000001
-1.3196536 -1.1003919 -0.90045831 -0.93434224 -0.76519269 -0.31750385 -0.12712004 -0.12393914 0.09441790900000001 0.28842606
-1.1003919 -0.90045831 -0.93434224 -0.76519269 -0.31750385 -0.12712004 -0.12393914 0.09441790900000001 0.28842606 0.26134707
-0.90045831 -0.93434224 -0.76519269 -0.31750385 -0.12712004 -0.12393914 0.09441790900000001 0.28842606 0.26134707 0.28973234
-0.93434224 -0.76519269 -0.31750385 -0.12712004 -0.12393914 0.09441790900000001 0.28842606 0.26134707 0.28973234 0.40727778
-0.76519269 -0.31750385 -0.12712004 -0.12393914 0.09441790900000001 0.28842606 0.26134707 0.28973234 0.40727778 0.43663741
-0.31750385 -0.12712004 -0.12393914 0.09441790900000001 0.28842606 0.26134707 0.28973234 0.40727778 0.43663741 0.44930812
-0.12712004 -0.12393914 0.09441790900000001 0.28842606 0.26134707 0.28973234 0.40727778 0.43663741 0.44930812 0.57086672
-0.12393914 0.09441790900000001 0.28842606 0.26134707 0.28973234 0.40727778 0.43663741 0.44930812 0.57086672 0.71117799
0.09441790900000001 0.28842606 0.26134707 0.28973234 0.40727778 0.43663741 0.44930812 0.57086672 0.71117799 0.67270791
0.28842606 0.26134707 0.28973234 0.40727778 0.43663741 0.44930812 0.57086672 0.71117799 0.67270791 0.50102225
0.26134707 0.28973234 0.40727778 0.43663741 0.44930812 0.57086672 0.71117799 0.67270791 0.50102225 0.50474276
0.28973234 0.40727778 0.43663741 0.44930812 0.57086672 0.71117799 0.67270791 0.50102225 0.50474276 0.6440953
0.40727778 0.43663741 0.44930812 0.57086672 0.71117799 0.67270791 0.50102225 0.50474276 0.6440953 0.5693421
0.43663741 0.44930812 0.57086672 0.71117799 0.67270791 0.50102225 0.50474276 0.6440953 0.5693421 0.40637792
0.44930812 0.57086672 0.71117799 0.67270791 0.50102225 0.50474276 0.6440953 0.5693421 0.40637792 0.45022584
0.57086672 0.71117799 0.67270791 0.50102225 0.50474276 0.6440953 0.5693421 0.40637792 0.45022584 0.51752375
0.71117799 0.67270791 0.50102225 0.50474276 0.6440953 0.5693421 0.40637792 0.45022584 0.51752375 0.50276501
0.67270791 0.50102225 0.50474276 0.6440953 0.5693421 0.40637792 0.45022584 0.51752375 0.50276501 0.57193338
0.50102225 0.50474276 0.6440953 0.5693421 0.40637792 0.45022584 0.51752375 0.50276501 0.57193338 0.63469281
0.50474276 0.6440953 0.5693421 0.40637792 0.45022584 0.51752375 0.50276501 0.57193338 0.63469281 0.6493091
0.6440953 0.5693421 0.40637792 0.45022584 0.51752375 0.50276501 0.57193338 0.63469281 0.6493091 0.70308117
0.5693421 0.40637792 0.45022584 0.51752375 0.50276501 0.57193338 0.63469281 0.6493091 0.70308117 0.58769289
0.40637792 0.45022584 0.51752375 0.50276501 0.57193338 0.63469281 0.6493091 0.70308117 0.58769289 0.355199
0.45022584 0.51752375 0.50276501 0.57193338 0.63469281 0.6493091 0.70308117 0.58769289 0.355199 0.39096336
0.51752375 0.50276501 0.57193338 0.63469281 0.6493091 0.70308117 0.58769289 0.355199 0.39096336 0.55882641
0.50276501 0.57193338 0.63469281 0.6493091 0.70308117 0.58769289 0.355199 0.39096336 0.55882641 0.6110081999999999
0.57193338 0.63469281 0.6493091 0.70308117 0.58769289 0.355199 0.39096336 0.55882641 0.6110081999999999 0.69257515
0.63469281 0.6493091 0.70308117 0.58769289 0.355199 0.39096336 0.55882641 0.6110081999999999 0.69257515 0.79444623
0.6493091 0.70308117 0.58769289 0.355199 0.39096336 0.55882641 0.6110081999999999 0.69257515 0.79444623 0.89688657
0.70308117 0.58769289 0.355199 0.39096336 0.55882641 0.6110081999999999 0.69257515 0.79444623 0.89688657 1.0514822
0.58769289 0.355199 0.39096336 0.55882641 0.6110081999999999 0.69257515 0.79444623 0.89688657 1.0514822 0.9391155999999999
0.355199 0.39096336 0.55882641 0.6110081999999999 0.69257515 0.79444623 0.89688657 1.0514822 0.9391155999999999 0.5557415
0.39096336 0.55882641 0.6110081999999999 0.69257515 0.79444623 0.89688657 1.0514822 0.9391155999999999 0.5557415 0.44731137
0.55882641 0.6110081999999999 0.69257515 0.79444623 0.89688657 1.0514822 0.9391155999999999 0.5557415 0.44731137 0.5646415
0.6110081999999999 0.69257515 0.79444623 0.89688657 1.0514822 0.9391155999999999 0.5557415 0.44731137 0.5646415 0.48760026
0.69257515 0.79444623 0.89688657 1.0514822 0.9391155999999999 0.5557415 0.44731137 0.5646415 0.48760026 0.42100331
0.79444623 0.89688657 1.0514822 0.9391155999999999 0.5557415 0.44731137 0.5646415 0.48760026 0.42100331 0.54976604
0.89688657 1.0514822 0.9391155999999999 0.5557415 0.44731137 0.5646415 0.48760026 0.42100331 0.54976604 0.5054632
1.0514822 0.9391155999999999 0.5557415 0.44731137 0.5646415 0.48760026 0.42100331 0.54976604 0.5054632 0.28184434
0.9391155999999999 0.5557415 0.44731137 0.5646415 0.48760026 0.42100331 0.54976604 0.5054632 0.28184434 0.34683145
0.5557415 0.44731137 0.5646415 0.48760026 0.42100331 0.54976604 0.5054632 0.28184434 0.34683145 0.52637517
0.44731137 0.5646415 0.48760026 0.42100331 0.54976604 0.5054632 0.28184434 0.34683145 0.52637517 0.22788969
