0.59591868 1.3137186 2.7465019 4.1991449 2.7199107000000002 1.715197 0.15929885 -0.56274529 0.9384163000000001 1.0180912
1.3137186 2.7465019 4.1991449 2.7199107000000002 1.715197 0.15929885 -0.56274529 0.9384163000000001 1.0180912 0.69694232
2.7465019 4.1991449 2.7199107000000002 1.715197 0.15929885 -0.56274529 0.9384163000000001 1.0180912 0.69694232 0.75985712
4.1991449 2.7199107000000002 1.715197 0.15929885 -0.56274529 0.9384163000000001 1.0180912 0.69694232 0.75985712 0.74706274
2.7199107000000002 1.715197 0.15929885 -0.56274529 0.9384163000000001 1.0180912 0.69694232 0.75985712 0.74706274 0.025409362999999997
1.715197 0.15929885 -0.56274529 0.9384163000000001 1.0180912 0.69694232 0.75985712 0.74706274 0.025409362999999997 -0.39747878
0.15929885 -0.56274529 0.9384163000000001 1.0180912 0.69694232 0.75985712 0.74706274 0.025409362999999997 -0.39747878 -0.69259959
-0.56274529 0.9384163000000001 1.0180912 0.69694232 0.75985712 0.74706274 0.025409362999999997 -0.39747878 -0.69259959 -0.67263826
0.9384163000000001 1.0180912 0.69694232 0.75985712 0.74706274 0.025409362999999997 -0.39747878 -0.69259959 -0.67263826 -0.70592656
1.0180912 0.69694232 0.75985712 0.74706274 0.025409362999999997 -0.39747878 -0.69259959 -0.67263826 -0.70592656 -0.83698358
0.69694232 0.75985712 0.74706274 0.025409362999999997 -0.39747878 -0.69259959 -0.67263826 -0.70592656 -0.83698358 -0.85410331
0.75985712 0.74706274 0.025409362999999997 -0.39747878 -0.69259959 -0.67263826 -0.70592656 -0.83698358 -0.85410331 -1.0416322
0.74706274 0.025409362999999997 -0.39747878 -0.69259959 -0.67263826 -0.70592656 -0.83698358 -0.85410331 -1.0416322 -0.97179172
0.025409362999999997 -0.39747878 -0.69259959 -0.67263826 -0.70592656 -0.83698358 -0.85410331 -1.0416322 -0.97179172 -1.1959011
-0.39747878 -0.69259959 -0.67263826 -0.70592656 -0.83698358 -0.85410331 -1.0416322 -0.97179172 -1.1959011 -1.4385469
-0.69259959 -0.67263826 -0.70592656 -0.83698358 -0.85410331 -1.0416322 -0.97179172 -1.1959011 -1.4385469 -1.2723357
-0.67263826 -0.70592656 -0.83698358 -0.85410331 -1.0416322 -0.97179172 -1.1959011 -1.4385469 -1.2723357 -1.4633253000000002
-0.70592656 -0.83698358 -0.85410331 -1.0416322 -0.97179172 -1.1959011 -1.4385469 -1.2723357 -1.4633253000000002 -1.5424214
-0.83698358 -0.85410331 -1.0416322 -0.97179172 -1.1959011 -1.4385469 -1.2723357 -1.4633253000000002 -1.5424214 -1.5670811000000002
-0.85410331 -1.0416322 -0.97179172 -1.1959011 -1.4385469 -1.2723357 -1.4633253000000002 -1.5424214 -1.5670811000000002 -1.7616535
-1.0416322 -0.97179172 -1.1959011 -1.4385469 -1.2723357 -1.4633253000000002 -1.5424214 -1.5670811000000002 -1.7616535 -1.8428244999999999
-0.97179172 -1.1959011 -1.4385469 -1.2723357 -1.4633253000000002 -1.5424214 -1.5670811000000002 -1.7616535 -1.8428244999999999 -1.6366834
-1.1959011 -1.4385469 -1.2723357 -1.4633253000000002 -1.5424214 -1.5670811000000002 -1.7616535 -1.8428244999999999 -1.6366834 -1.7920051
-1.4385469 -1.2723357 -1.4633253000000002 -1.5424214 -1.5670811000000002 -1.7616535 -1.8428244999999999 -1.6366834 -1.7920051 -1.8138444
-1.2723357 -1.4633253000000002 -1.5424214 -1.5670811000000002 -1.7616535 -1.8428244999999999 -1.6366834 -1.7920051 -1.8138444 -1.5141021000000001
-1.4633253000000002 -1.5424214 -1.5670811000000002 -1.7616535 -1.8428244999999999 -1.6366834 -1.7920051 -1.8138444 -1.5141021000000001 -1.4983458
-1.5424214 -1.5670811000000002 -1.7616535 -1.8428244999999999 -1.6366834 -1.7920051 -1.8138444 -1.5141021000000001 -1.4983458 -1.2834368999999999
-1.5670811000000002 -1.7616535 -1.8428244999999999 -1.6366834 -1.7920051 -1.8138444 -1.5141021000000001 -1.4983458 -1.2834368999999999 -1.0092683
-1.7616535 -1.8428244999999999 -1.6366834 -1.7920051 -1.8138444 -1.5141021000000001 -1.4983458 -1.2834368999999999 -1.0092683 -0.63407808
-1.8428244999999999 -1.6366834 -1.7920051 -1.8138444 -1.5141021000000001 -1.4983458 -1.2834368999999999 -1.0092683 -0.63407808 -0.21875523
-1.6366834 -1.7920051 -1.8138444 -1.5141021000000001 -1.4983458 -1.2834368999999999 -1.0092683 -0.63407808 -0.21875523 -0.063673391
-1.7920051 -1.8138444 -1.5141021000000001 -1.4983458 -1.2834368999999999 -1.0092683 -0.63407808 -0.21875523 -0.063673391 0.18070968
-1.8138444 -1.5141021000000001 -1.4983458 -1.2834368999999999 -1.0092683 -0.63407808 -0.21875523 -0.063673391 0.18070968 0.40228251
-1.5141021000000001 -1.4983458 -1.2834368999999999 -1.0092683 -0.63407808 -0.21875523 -0.063673391 0.18070968 0.40228251 0.68322934
-1.4983458 -1.2834368999999999 -1.0092683 -0.63407808 -0.21875523 -0.063673391 0.18070968 0.40228251 0.68322934 0.59287
-1.2834368999999999 -1.0092683 -0.63407808 -0.21875523 -0.063673391 0.18070968 0.40228251 0.68322934 0.59287 0.94003279
-1.0092683 -0.63407808 -0.21875523 -0.063673391 0.18070968 0.40228251 0.68322934 0.59287 0.94003279 0.98085243
-0.63407808 -0.21875523 -0.063673391 0.18070968 0.40228251 0.68322934 0.59287 0.94003279 0.98085243 0.77388907
-0.21875523 -0.063673391 0.18070968 0.40228251 0.68322934 0.59287 0.94003279 0.98085243 0.77388907 0.87522053
-0.063673391 0.18070968 0.40228251 0.68322934 0.59287 0.94003279 0.98085243 0.77388907 0.87522053 0.7783658
0.18070968 0.40228251 0.68322934 0.59287 0.94003279 0.98085243 0.77388907 0.87522053 0.7783658 0.7959889
0.40228251 0.68322934 0.59287 0.94003279 0.98085243 0.77388907 0.87522053 0.7783658 0.7959889 0.68323507
0.68322934 0.59287 0.94003279 0.98085243 0.77388907 0.87522053 0.7783658 0.7959889 0.68323507 0.54214163
0.59287 0.94003279 0.98085243 0.77388907 0.87522053 0.7783658 0.7959889 0.68323507 0.54214163 0.64059169
0.94003279 0.98085243 0.77388907 0.87522053 0.7783658 0.7959889 0.68323507 0.54214163 0.64059169 0.50922627
0.98085243 0.77388907 0.87522053 0.7783658 0.7959889 0.68323507 0.54214163 0.64059169 0.50922627 0.49928852
0.77388907 0.87522053 0.7783658 0.7959889 0.68323507 0.54214163 0.64059169 0.50922627 0.49928852 0.55352849
0.87522053 0.7783658 0.7959889 0.68323507 0.54214163 0.64059169 0.50922627 0.49928852 0.55352849 0.47593541
0.7783658 0.7959889 0.68323507 0.54214163 0.64059169 0.50922627 0.49928852 0.55352849 0.47593541 0.60663324
0.7959889 0.68323507 0.54214163 0.64059169 0.50922627 0.49928852 0.55352849 0.47593541 0.60663324 0.54055945
0.68323507 0.54214163 0.64059169 0.50922627 0.49928852 0.55352849 0.47593541 0.60663324 0.54055945 0.52308622
0.54214163 0.64059169 0.50922627 0.49928852 0.55352849 0.47593541 0.60663324 0.54055945 0.52308622 0.34662553
0.64059169 0.50922627 0.49928852 0.55352849 0.47593541 0.60663324 0.54055945 0.52308622 0.34662553 0.42162988
0.50922627 0.49928852 0.55352849 0.47593541 0.60663324 0.54055945 0.52308622 0.34662553 0.42162988 0.39821562
0.49928852 0.55352849 0.47593541 0.60663324 0.54055945 0.52308622 0.34662553 0.42162988 0.39821562 0.26746326
0.55352849 0.47593541 0.60663324 0.54055945 0.52308622 0.34662553 0.42162988 0.39821562 0.26746326 0.36036078
0.47593541 0.60663324 0.54055945 0.52308622 0.34662553 0.42162988 0.39821562 0.26746326 0.36036078 0.29793309
0.60663324 0.54055945 0.52308622 0.34662553 0.42162988 0.39821562 0.26746326 0.36036078 0.29793309 0.21546029
0.54055945 0.52308622 0.34662553 0.42162988 0.39821562 0.26746326 0.36036078 0.29793309 0.21546029 0.11282313
0.52308622 0.34662553 0.42162988 0.39821562 0.26746326 0.36036078 0.29793309 0.21546029 0.11282313 0.23442048
0.34662553 0.42162988 0.39821562 0.26746326 0.36036078 0.29793309 0.21546029 0.11282313 0.23442048 0.06490235400000001
0.42162988 0.39821562 0.26746326 0.36036078 0.29793309 0.21546029 0.11282313 0.23442048 0.06490235400000001 0.086005352
0.39821562 0.26746326 0.36036078 0.29793309 0.21546029 0.11282313 0.23442048 0.06490235400000001 0.086005352 0.11529257
0.26746326 0.36036078 0.29793309 0.21546029 0.11282313 0.23442048 0.06490235400000001 0.086005352 0.11529257 0.40376048
0.36036078 0.29793309 0.21546029 0.11282313 0.23442048 0.06490235400000001 0.086005352 0.11529257 0.40376048 0.64651147
0.29793309 0.21546029 0.11282313 0.23442048 0.06490235400000001 0.086005352 0.11529257 0.40376048 0.64651147 0.5343091999999999
0.21546029 0.11282313 0.23442048 0.06490235400000001 0.086005352 0.11529257 0.40376048 0.64651147 0.5343091999999999 0.57351477
0.11282313 0.23442048 0.06490235400000001 0.086005352 0.11529257 0.40376048 0.64651147 0.5343091999999999 0.57351477 0.35302903
0.23442048 0.06490235400000001 0.086005352 0.11529257 0.40376048 0.64651147 0.5343091999999999 0.57351477 0.35302903 0.26353982
0.06490235400000001 0.086005352 0.11529257 0.40376048 0.64651147 0.5343091999999999 0.57351477 0.35302903 0.26353982 0.092057865
0.086005352 0.11529257 0.40376048 0.64651147 0.5343091999999999 0.57351477 0.35302903 0.26353982 0.092057865 -0.17175339
0.11529257 0.40376048 0.64651147 0.5343091999999999 0.57351477 0.35302903 0.26353982 0.092057865 -0.17175339 -0.16070163
0.40376048 0.64651147 0.5343091999999999 0.57351477 0.35302903 0.26353982 0.092057865 -0.17175339 -0.16070163 -0.24940706
0.64651147 0.5343091999999999 0.57351477 0.35302903 0.26353982 0.092057865 -0.17175339 -0.16070163 -0.24940706 -0.12360075
0.5343091999999999 0.57351477 0.35302903 0.26353982 0.092057865 -0.17175339 -0.16070163 -0.24940706 -0.12360075 -0.41908272
0.57351477 0.35302903 0.26353982 0.092057865 -0.17175339 -0.16070163 -0.24940706 -0.12360075 -0.41908272 -0.3202235
0.35302903 0.26353982 0.092057865 -0.17175339 -0.16070163 -0.24940706 -0.12360075 -0.41908272 -0.3202235 -0.22563804
0.26353982 0.092057865 -0.17175339 -0.16070163 -0.24940706 -0.12360075 -0.41908272 -0.3202235 -0.22563804 -0.41717749
0.092057865 -0.17175339 -0.16070163 -0.24940706 -0.12360075 -0.41908272 -0.3202235 -0.22563804 -0.41717749 -0.29645393
-0.17175339 -0.16070163 -0.24940706 -0.12360075 -0.41908272 -0.3202235 -0.22563804 -0.41717749 -0.29645393 -0.42934136
-0.16070163 -0.24940706 -0.12360075 -0.41908272 -0.3202235 -0.22563804 -0.41717749 -0.29645393 -0.42934136 -0.37286401
-0.24940706 -0.12360075 -0.41908272 -0.3202235 -0.22563804 -0.41717749 -0.29645393 -0.42934136 -0.37286401 -0.38688693
-0.12360075 -0.41908272 -0.3202235 -0.22563804 -0.41717749 -0.29645393 -0.42934136 -0.37286401 -0.38688693 -0.53091694
-0.41908272 -0.3202235 -0.22563804 -0.41717749 -0.29645393 -0.42934136 -0.37286401 -0.38688693 -0.53091694 -0.38205249
-0.3202235 -0.22563804 -0.41717749 -0.29645393 -0.42934136 -0.37286401 -0.38688693 -0.53091694 -0.38205249 -0.45981887
-0.22563804 -0.41717749 -0.29645393 -0.42934136 -0.37286401 -0.38688693 -0.53091694 -0.38205249 -0.45981887 -0.47662155
-0.41717749 -0.29645393 -0.42934136 -0.37286401 -0.38688693 -0.53091694 -0.38205249 -0.45981887 -0.47662155 -0.29426952
