1.2215121 3.5215769 3.6276133 3.0769932 2.0356967 -0.13592834 1.2264336999999998 0.74404578 0.2093786 0.65520998
3.5215769 3.6276133 3.0769932 2.0356967 -0.13592834 1.2264336999999998 0.74404578 0.2093786 0.65520998 -0.21036739
3.6276133 3.0769932 2.0356967 -0.13592834 1.2264336999999998 0.74404578 0.2093786 0.65520998 -0.21036739 -0.82743492
3.0769932 2.0356967 -0.13592834 1.2264336999999998 0.74404578 0.2093786 0.65520998 -0.21036739 -0.82743492 -1.0251441
2.0356967 -0.13592834 1.2264336999999998 0.74404578 0.2093786 0.65520998 -0.21036739 -0.82743492 -1.0251441 -1.1013262
-0.13592834 1.2264336999999998 0.74404578 0.2093786 0.65520998 -0.21036739 -0.82743492 -1.0251441 -1.1013262 -1.022982
1.2264336999999998 0.74404578 0.2093786 0.65520998 -0.21036739 -0.82743492 -1.0251441 -1.1013262 -1.022982 -1.4627243
0.74404578 0.2093786 0.65520998 -0.21036739 -0.82743492 -1.0251441 -1.1013262 -1.022982 -1.4627243 -1.436744
0.2093786 0.65520998 -0.21036739 -0.82743492 -1.0251441 -1.1013262 -1.022982 -1.4627243 -1.436744 -1.4114183
0.65520998 -0.21036739 -0.82743492 -1.0251441 -1.1013262 -1.022982 -1.4627243 -1.436744 -1.4114183 -1.6730852999999999
-0.21036739 -0.82743492 -1.0251441 -1.1013262 -1.022982 -1.4627243 -1.436744 -1.4114183 -1.6730852999999999 -1.8698694
-0.82743492 -1.0251441 -1.1013262 -1.022982 -1.4627243 -1.436744 -1.4114183 -1.6730852999999999 -1.8698694 -1.9964448000000001
-1.0251441 -1.1013262 -1.022982 -1.4627243 -1.436744 -1.4114183 -1.6730852999999999 -1.8698694 -1.9964448000000001 -2.1150898
-1.1013262 -1.022982 -1.4627243 -1.436744 -1.4114183 -1.6730852999999999 -1.8698694 -1.9964448000000001 -2.1150898 -2.1980117000000003
-1.022982 -1.4627243 -1.436744 -1.4114183 -1.6730852999999999 -1.8698694 -1.9964448000000001 -2.1150898 -2.1980117000000003 -2.0530214
-1.4627243 -1.436744 -1.4114183 -1.6730852999999999 -1.8698694 -1.9964448000000001 -2.1150898 -2.1980117000000003 -2.0530214 -2.0658046999999997
-1.436744 -1.4114183 -1.6730852999999999 -1.8698694 -1.9964448000000001 -2.1150898 -2.1980117000000003 -2.0530214 -2.0658046999999997 -1.7571801
-1.4114183 -1.6730852999999999 -1.8698694 -1.9964448000000001 -2.1150898 -2.1980117000000003 -2.0530214 -2.0658046999999997 -1.7571801 -1.6556366000000002
-1.6730852999999999 -1.8698694 -1.9964448000000001 -2.1150898 -2.1980117000000003 -2.0530214 -2.0658046999999997 -1.7571801 -1.6556366000000002 -0.87854252
-1.8698694 -1.9964448000000001 -2.1150898 -2.1980117000000003 -2.0530214 -2.0658046999999997 -1.7571801 -1.6556366000000002 -0.87854252 -0.75572895
-1.9964448000000001 -2.1150898 -2.1980117000000003 -2.0530214 -2.0658046999999997 -1.7571801 -1.6556366000000002 -0.87854252 -0.75572895 -0.51665345
-2.1150898 -2.1980117000000003 -2.0530214 -2.0658046999999997 -1.7571801 -1.6556366000000002 -0.87854252 -0.75572895 -0.51665345 0.09985820699999999
-2.1980117000000003 -2.0530214 -2.0658046999999997 -1.7571801 -1.6556366000000002 -0.87854252 -0.75572895 -0.51665345 0.09985820699999999 0.07772014099999999
-2.0530214 -2.0658046999999997 -1.7571801 -1.6556366000000002 -0.87854252 -0.75572895 -0.51665345 0.09985820699999999 0.07772014099999999 0.41592640000000003
-2.0658046999999997 -1.7571801 -1.6556366000000002 -0.87854252 -0.75572895 -0.51665345 0.09985820699999999 0.07772014099999999 0.41592640000000003 0.42419506
-1.7571801 -1.6556366000000002 -0.87854252 -0.75572895 -0.51665345 0.09985820699999999 0.07772014099999999 0.41592640000000003 0.42419506 0.69321939
-1.6556366000000002 -0.87854252 -0.75572895 -0.51665345 0.09985820699999999 0.07772014099999999 0.41592640000000003 0.42419506 0.69321939 0.67814222
-0.87854252 -0.75572895 -0.51665345 0.09985820699999999 0.07772014099999999 0.41592640000000003 0.42419506 0.69321939 0.67814222 0.47881179
-0.75572895 -0.51665345 0.09985820699999999 0.07772014099999999 0.41592640000000003 0.42419506 0.69321939 0.67814222 0.47881179 0.62165802
-0.51665345 0.09985820699999999 0.07772014099999999 0.41592640000000003 0.42419506 0.69321939 0.67814222 0.47881179 0.62165802 0.58121424
0.09985820699999999 0.07772014099999999 0.41592640000000003 0.42419506 0.69321939 0.67814222 0.47881179 0.62165802 0.58121424 0.24988203
0.07772014099999999 0.41592640000000003 0.42419506 0.69321939 0.67814222 0.47881179 0.62165802 0.58121424 0.24988203 0.41374225
0.41592640000000003 0.42419506 0.69321939 0.67814222 0.47881179 0.62165802 0.58121424 0.24988203 0.41374225 0.34924394
0.42419506 0.69321939 0.67814222 0.47881179 0.62165802 0.58121424 0.24988203 0.41374225 0.34924394 0.34486122
0.69321939 0.67814222 0.47881179 0.62165802 0.58121424 0.24988203 0.41374225 0.34924394 0.34486122 0.29218133
0.67814222 0.47881179 0.62165802 0.58121424 0.24988203 0.41374225 0.34924394 0.34486122 0.29218133 0.41368828
0.47881179 0.62165802 0.58121424 0.24988203 0.41374225 0.34924394 0.34486122 0.29218133 0.41368828 0.091295443
0.62165802 0.58121424 0.24988203 0.41374225 0.34924394 0.34486122 0.29218133 0.41368828 0.091295443 0.48129658
0.58121424 0.24988203 0.41374225 0.34924394 0.34486122 0.29218133 0.41368828 0.091295443 0.48129658 0.19183897
0.24988203 0.41374225 0.34924394 0.34486122 0.29218133 0.41368828 0.091295443 0.48129658 0.19183897 0.32476525
0.41374225 0.34924394 0.34486122 0.29218133 0.41368828 0.091295443 0.48129658 0.19183897 0.32476525 -0.05405613
0.34924394 0.34486122 0.29218133 0.41368828 0.091295443 0.48129658 0.19183897 0.32476525 -0.05405613 0.2627474
0.34486122 0.29218133 0.41368828 0.091295443 0.48129658 0.19183897 0.32476525 -0.05405613 0.2627474 0.12352279
0.29218133 0.41368828 0.091295443 0.48129658 0.19183897 0.32476525 -0.05405613 0.2627474 0.12352279 0.029316117000000003
0.41368828 0.091295443 0.48129658 0.19183897 0.32476525 -0.05405613 0.2627474 0.12352279 0.029316117000000003 0.040023614
0.091295443 0.48129658 0.19183897 0.32476525 -0.05405613 0.2627474 0.12352279 0.029316117000000003 0.040023614 0.15409221
0.48129658 0.19183897 0.32476525 -0.05405613 0.2627474 0.12352279 0.029316117000000003 0.040023614 0.15409221 0.14085676
0.19183897 0.32476525 -0.05405613 0.2627474 0.12352279 0.029316117000000003 0.040023614 0.15409221 0.14085676 -0.1262528
0.32476525 -0.05405613 0.2627474 0.12352279 0.029316117000000003 0.040023614 0.15409221 0.14085676 -0.1262528 0.0062633122
-0.05405613 0.2627474 0.12352279 0.029316117000000003 0.040023614 0.15409221 0.14085676 -0.1262528 0.0062633122 0.10965699999999999
0.2627474 0.12352279 0.029316117000000003 0.040023614 0.15409221 0.14085676 -0.1262528 0.0062633122 0.10965699999999999 0.031423292
0.12352279 0.029316117000000003 0.040023614 0.15409221 0.14085676 -0.1262528 0.0062633122 0.10965699999999999 0.031423292 -0.032844966
0.029316117000000003 0.040023614 0.15409221 0.14085676 -0.1262528 0.0062633122 0.10965699999999999 0.031423292 -0.032844966 -0.0056070895
0.040023614 0.15409221 0.14085676 -0.1262528 0.0062633122 0.10965699999999999 0.031423292 -0.032844966 -0.0056070895 -0.044973055
0.15409221 0.14085676 -0.1262528 0.0062633122 0.10965699999999999 0.031423292 -0.032844966 -0.0056070895 -0.044973055 0.033773535
0.14085676 -0.1262528 0.0062633122 0.10965699999999999 0.031423292 -0.032844966 -0.0056070895 -0.044973055 0.033773535 -0.030621995
-0.1262528 0.0062633122 0.10965699999999999 0.031423292 -0.032844966 -0.0056070895 -0.044973055 0.033773535 -0.030621995 -0.005986895799999999
0.0062633122 0.10965699999999999 0.031423292 -0.032844966 -0.0056070895 -0.044973055 0.033773535 -0.030621995 -0.005986895799999999 -0.035922891
0.10965699999999999 0.031423292 -0.032844966 -0.0056070895 -0.044973055 0.033773535 -0.030621995 -0.005986895799999999 -0.035922891 0.023524711
0.031423292 -0.032844966 -0.0056070895 -0.044973055 0.033773535 -0.030621995 -0.005986895799999999 -0.035922891 0.023524711 0.010005788
-0.032844966 -0.0056070895 -0.044973055 0.033773535 -0.030621995 -0.005986895799999999 -0.035922891 0.023524711 0.010005788 0.010863771000000001
-0.0056070895 -0.044973055 0.033773535 -0.030621995 -0.005986895799999999 -0.035922891 0.023524711 0.010005788 0.010863771000000001 0.050329092
-0.044973055 0.033773535 -0.030621995 -0.005986895799999999 -0.035922891 0.023524711 0.010005788 0.010863771000000001 0.050329092 0.046130773
0.033773535 -0.030621995 -0.005986895799999999 -0.035922891 0.023524711 0.010005788 0.010863771000000001 0.050329092 0.046130773 0.067469936
-0.030621995 -0.005986895799999999 -0.035922891 0.023524711 0.010005788 0.010863771000000001 0.050329092 0.046130773 0.067469936 0.0078069277
-0.005986895799999999 -0.035922891 0.023524711 0.010005788 0.010863771000000001 0.050329092 0.046130773 0.067469936 0.0078069277 0.10937357
-0.035922891 0.023524711 0.010005788 0.010863771000000001 0.050329092 0.046130773 0.067469936 0.0078069277 0.10937357 0.053045010999999996
0.023524711 0.010005788 0.010863771000000001 0.050329092 0.046130773 0.067469936 0.0078069277 0.10937357 0.053045010999999996 -0.014841257
0.010005788 0.010863771000000001 0.050329092 0.046130773 0.067469936 0.0078069277 0.10937357 0.053045010999999996 -0.014841257 0.28771582
0.010863771000000001 0.050329092 0.046130773 0.067469936 0.0078069277 0.10937357 0.053045010999999996 -0.014841257 0.28771582 0.66467801
0.050329092 0.046130773 0.067469936 0.0078069277 0.10937357 0.053045010999999996 -0.014841257 0.28771582 0.66467801 0.71539681
0.046130773 0.067469936 0.0078069277 0.10937357 0.053045010999999996 -0.014841257 0.28771582 0.66467801 0.71539681 0.66527195
0.067469936 0.0078069277 0.10937357 0.053045010999999996 -0.014841257 0.28771582 0.66467801 0.71539681 0.66527195 0.79548582
0.0078069277 0.10937357 0.053045010999999996 -0.014841257 0.28771582 0.66467801 0.71539681 0.66527195 0.79548582 0.35688981
0.10937357 0.053045010999999996 -0.014841257 0.28771582 0.66467801 0.71539681 0.66527195 0.79548582 0.35688981 0.15609800000000001
0.053045010999999996 -0.014841257 0.28771582 0.66467801 0.71539681 0.66527195 0.79548582 0.35688981 0.15609800000000001 -0.014453087
-0.014841257 0.28771582 0.66467801 0.71539681 0.66527195 0.79548582 0.35688981 0.15609800000000001 -0.014453087 -0.05879335
0.28771582 0.66467801 0.71539681 0.66527195 0.79548582 0.35688981 0.15609800000000001 -0.014453087 -0.05879335 -0.14699367
0.66467801 0.71539681 0.66527195 0.79548582 0.35688981 0.15609800000000001 -0.014453087 -0.05879335 -0.14699367 0.092278284
0.71539681 0.66527195 0.79548582 0.35688981 0.15609800000000001 -0.014453087 -0.05879335 -0.14699367 0.092278284 0.0028708814
0.66527195 0.79548582 0.35688981 0.15609800000000001 -0.014453087 -0.05879335 -0.14699367 0.092278284 0.0028708814 -0.21004583
0.79548582 0.35688981 0.15609800000000001 -0.014453087 -0.05879335 -0.14699367 0.092278284 0.0028708814 -0.21004583 -0.0059148162
0.35688981 0.15609800000000001 -0.014453087 -0.05879335 -0.14699367 0.092278284 0.0028708814 -0.21004583 -0.0059148162 -0.10002261
0.15609800000000001 -0.014453087 -0.05879335 -0.14699367 0.092278284 0.0028708814 -0.21004583 -0.0059148162 -0.10002261 -0.040720721
-0.014453087 -0.05879335 -0.14699367 0.092278284 0.0028708814 -0.21004583 -0.0059148162 -0.10002261 -0.040720721 0.089248935
-0.05879335 -0.14699367 0.092278284 0.0028708814 -0.21004583 -0.0059148162 -0.10002261 -0.040720721 0.089248935 0.099830079
-0.14699367 0.092278284 0.0028708814 -0.21004583 -0.0059148162 -0.10002261 -0.040720721 0.089248935 0.099830079 0.31919841
