0.7809784000000001 1.3408038999999998 1.9632789000000002 3.0925116000000004 3.7208991 3.0264523 1.9805153000000002 1.0087382 -0.08895906199999999 -0.24125413
1.3408038999999998 1.9632789000000002 3.0925116000000004 3.7208991 3.0264523 1.9805153000000002 1.0087382 -0.08895906199999999 -0.24125413 0.38623753
1.9632789000000002 3.0925116000000004 3.7208991 3.0264523 1.9805153000000002 1.0087382 -0.08895906199999999 -0.24125413 0.38623753 0.5923369
3.0925116000000004 3.7208991 3.0264523 1.9805153000000002 1.0087382 -0.08895906199999999 -0.24125413 0.38623753 0.5923369 0.65592355
3.7208991 3.0264523 1.9805153000000002 1.0087382 -0.08895906199999999 -0.24125413 0.38623753 0.5923369 0.65592355 0.8049269
3.0264523 1.9805153000000002 1.0087382 -0.08895906199999999 -0.24125413 0.38623753 0.5923369 0.65592355 0.8049269 0.55720714
1.9805153000000002 1.0087382 -0.08895906199999999 -0.24125413 0.38623753 0.5923369 0.65592355 0.8049269 0.55720714 0.30263564
1.0087382 -0.08895906199999999 -0.24125413 0.38623753 0.5923369 0.65592355 0.8049269 0.55720714 0.30263564 0.43666368
-0.08895906199999999 -0.24125413 0.38623753 0.5923369 0.65592355 0.8049269 0.55720714 0.30263564 0.43666368 0.36623393
-0.24125413 0.38623753 0.5923369 0.65592355 0.8049269 0.55720714 0.30263564 0.43666368 0.36623393 -0.052911988
0.38623753 0.5923369 0.65592355 0.8049269 0.55720714 0.30263564 0.43666368 0.36623393 -0.052911988 -0.27489342
0.5923369 0.65592355 0.8049269 0.55720714 0.30263564 0.43666368 0.36623393 -0.052911988 -0.27489342 -0.38187981
0.65592355 0.8049269 0.55720714 0.30263564 0.43666368 0.36623393 -0.052911988 -0.27489342 -0.38187981 -0.53945163
0.8049269 0.55720714 0.30263564 0.43666368 0.36623393 -0.052911988 -0.27489342 -0.38187981 -0.53945163 -0.5195059
0.55720714 0.30263564 0.43666368 0.36623393 -0.052911988 -0.27489342 -0.38187981 -0.53945163 -0.5195059 -0.54375073
0.30263564 0.43666368 0.36623393 -0.052911988 -0.27489342 -0.38187981 -0.53945163 -0.5195059 -0.54375073 -0.74428235
0.43666368 0.36623393 -0.052911988 -0.27489342 -0.38187981 -0.53945163 -0.5195059 -0.54375073 -0.74428235 -0.80257018
0.36623393 -0.052911988 -0.27489342 -0.38187981 -0.53945163 -0.5195059 -0.54375073 -0.74428235 -0.80257018 -0.7135334
-0.052911988 -0.27489342 -0.38187981 -0.53945163 -0.5195059 -0.54375073 -0.74428235 -0.80257018 -0.7135334 -0.72706869
-0.27489342 -0.38187981 -0.53945163 -0.5195059 -0.54375073 -0.74428235 -0.80257018 -0.7135334 -0.72706869 -0.8910346
-0.38187981 -0.53945163 -0.5195059 -0.54375073 -0.74428235 -0.80257018 -0.7135334 -0.72706869 -0.8910346 -0.88052164
-0.53945163 -0.5195059 -0.54375073 -0.74428235 -0.80257018 -0.7135334 -0.72706869 -0.8910346 -0.88052164 -0.75277364
-0.5195059 -0.54375073 -0.74428235 -0.80257018 -0.7135334 -0.72706869 -0.8910346 -0.88052164 -0.75277364 -0.99466312
-0.54375073 -0.74428235 -0.80257018 -0.7135334 -0.72706869 -0.8910346 -0.88052164 -0.75277364 -0.99466312 -1.137075
-0.74428235 -0.80257018 -0.7135334 -0.72706869 -0.8910346 -0.88052164 -0.75277364 -0.99466312 -1.137075 -1.0150152
-0.80257018 -0.7135334 -0.72706869 -0.8910346 -0.88052164 -0.75277364 -0.99466312 -1.137075 -1.0150152 -1.3691058
-0.7135334 -0.72706869 -0.8910346 -0.88052164 -0.75277364 -0.99466312 -1.137075 -1.0150152 -1.3691058 -1.4847763999999999
-0.72706869 -0.8910346 -0.88052164 -0.75277364 -0.99466312 -1.137075 -1.0150152 -1.3691058 -1.4847763999999999 -1.0221708
-0.8910346 -0.88052164 -0.75277364 -0.99466312 -1.137075 -1.0150152 -1.3691058 -1.4847763999999999 -1.0221708 -1.2474663000000001
-0.88052164 -0.75277364 -0.99466312 -1.137075 -1.0150152 -1.3691058 -1.4847763999999999 -1.0221708 -1.2474663000000001 -1.7114988000000002
-0.75277364 -0.99466312 -1.137075 -1.0150152 -1.3691058 -1.4847763999999999 -1.0221708 -1.2474663000000001 -1.7114988000000002 -1.5263076999999998
-0.99466312 -1.137075 -1.0150152 -1.3691058 -1.4847763999999999 -1.0221708 -1.2474663000000001 -1.7114988000000002 -1.5263076999999998 -1.4788375
-1.137075 -1.0150152 -1.3691058 -1.4847763999999999 -1.0221708 -1.2474663000000001 -1.7114988000000002 -1.5263076999999998 -1.4788375 -1.6883493000000003
-1.0150152 -1.3691058 -1.4847763999999999 -1.0221708 -1.2474663000000001 -1.7114988000000002 -1.5263076999999998 -1.4788375 -1.6883493000000003 -1.5859912
-1.3691058 -1.4847763999999999 -1.0221708 -1.2474663000000001 -1.7114988000000002 -1.5263076999999998 -1.4788375 -1.6883493000000003 -1.5859912 -1.3635632
-1.4847763999999999 -1.0221708 -1.2474663000000001 -1.7114988000000002 -1.5263076999999998 -1.4788375 -1.6883493000000003 -1.5859912 -1.3635632 -1.3902638
-1.0221708 -1.2474663000000001 -1.7114988000000002 -1.5263076999999998 -1.4788375 -1.6883493000000003 -1.5859912 -1.3635632 -1.3902638 -1.5852681
-1.2474663000000001 -1.7114988000000002 -1.5263076999999998 -1.4788375 -1.6883493000000003 -1.5859912 -1.3635632 -1.3902638 -1.5852681 -1.5155296999999999
-1.7114988000000002 -1.5263076999999998 -1.4788375 -1.6883493000000003 -1.5859912 -1.3635632 -1.3902638 -1.5852681 -1.5155296999999999 -1.157178
-1.5263076999999998 -1.4788375 -1.6883493000000003 -1.5859912 -1.3635632 -1.3902638 -1.5852681 -1.5155296999999999 -1.157178 -1.026275
-1.4788375 -1.6883493000000003 -1.5859912 -1.3635632 -1.3902638 -1.5852681 -1.5155296999999999 -1.157178 -1.026275 -1.1042243
-1.6883493000000003 -1.5859912 -1.3635632 -1.3902638 -1.5852681 -1.5155296999999999 -1.157178 -1.026275 -1.1042243 -0.82270643
-1.5859912 -1.3635632 -1.3902638 -1.5852681 -1.5155296999999999 -1.157178 -1.026275 -1.1042243 -0.82270643 -0.36660368
-1.3635632 -1.3902638 -1.5852681 -1.5155296999999999 -1.157178 -1.026275 -1.1042243 -0.82270643 -0.36660368 -0.31252440000000004
-1.3902638 -1.5852681 -1.5155296999999999 -1.157178 -1.026275 -1.1042243 -0.82270643 -0.36660368 -0.31252440000000004 -0.212619
-1.5852681 -1.5155296999999999 -1.157178 -1.026275 -1.1042243 -0.82270643 -0.36660368 -0.31252440000000004 -0.212619 0.20380411
-1.5155296999999999 -1.157178 -1.026275 -1.1042243 -0.82270643 -0.36660368 -0.31252440000000004 -0.212619 0.20380411 0.28947628
-1.157178 -1.026275 -1.1042243 -0.82270643 -0.36660368 -0.31252440000000004 -0.212619 0.20380411 0.28947628 0.21226797
-1.026275 -1.1042243 -0.82270643 -0.36660368 -0.31252440000000004 -0.212619 0.20380411 0.28947628 0.21226797 0.39287985
-1.1042243 -0.82270643 -0.36660368 -0.31252440000000004 -0.212619 0.20380411 0.28947628 0.21226797 0.39287985 0.50741425
-0.82270643 -0.36660368 -0.31252440000000004 -0.212619 0.20380411 0.28947628 0.21226797 0.39287985 0.50741425 0.5922261999999999
-0.36660368 -0.31252440000000004 -0.212619 0.20380411 0.28947628 0.21226797 0.39287985 0.50741425 0.5922261999999999 0.76172404
-0.31252440000000004 -0.212619 0.20380411 0.28947628 0.21226797 0.39287985 0.50741425 0.5922261999999999 0.76172404 0.7441493
-0.212619 0.20380411 0.28947628 0.21226797 0.39287985 0.50741425 0.5922261999999999 0.76172404 0.7441493 0.65502964
0.20380411 0.28947628 0.21226797 0.39287985 0.50741425 0.5922261999999999 0.76172404 0.7441493 0.65502964 0.71342145
0.28947628 0.21226797 0.39287985 0.50741425 0.5922261999999999 0.76172404 0.7441493 0.65502964 0.71342145 0.8024664
0.21226797 0.39287985 0.50741425 0.5922261999999999 0.76172404 0.7441493 0.65502964 0.71342145 0.8024664 0.74421351
0.39287985 0.50741425 0.5922261999999999 0.76172404 0.7441493 0.65502964 0.71342145 0.8024664 0.74421351 0.56416443
0.50741425 0.5922261999999999 0.76172404 0.7441493 0.65502964 0.71342145 0.8024664 0.74421351 0.56416443 0.51218704
0.5922261999999999 0.76172404 0.7441493 0.65502964 0.71342145 0.8024664 0.74421351 0.56416443 0.51218704 0.55213285
0.76172404 0.7441493 0.65502964 0.71342145 0.8024664 0.74421351 0.56416443 0.51218704 0.55213285 0.49949489
0.7441493 0.65502964 0.71342145 0.8024664 0.74421351 0.56416443 0.51218704 0.55213285 0.49949489 0.49820084
0.65502964 0.71342145 0.8024664 0.74421351 0.56416443 0.51218704 0.55213285 0.49949489 0.49820084 0.48083508
0.71342145 0.8024664 0.74421351 0.56416443 0.51218704 0.55213285 0.49949489 0.49820084 0.48083508 0.32557258
0.8024664 0.74421351 0.56416443 0.51218704 0.55213285 0.49949489 0.49820084 0.48083508 0.32557258 0.32538249999999996
0.74421351 0.56416443 0.51218704 0.55213285 0.49949489 0.49820084 0.48083508 0.32557258 0.32538249999999996 0.444007
0.56416443 0.51218704 0.55213285 0.49949489 0.49820084 0.48083508 0.32557258 0.32538249999999996 0.444007 0.42942221
0.51218704 0.55213285 0.49949489 0.49820084 0.48083508 0.32557258 0.32538249999999996 0.444007 0.42942221 0.37472729
0.55213285 0.49949489 0.49820084 0.48083508 0.32557258 0.32538249999999996 0.444007 0.42942221 0.37472729 0.28648482
0.49949489 0.49820084 0.48083508 0.32557258 0.32538249999999996 0.444007 0.42942221 0.37472729 0.28648482 0.21085752
0.49820084 0.48083508 0.32557258 0.32538249999999996 0.444007 0.42942221 0.37472729 0.28648482 0.21085752 0.30070069
0.48083508 0.32557258 0.32538249999999996 0.444007 0.42942221 0.37472729 0.28648482 0.21085752 0.30070069 0.36982165
0.32557258 0.32538249999999996 0.444007 0.42942221 0.37472729 0.28648482 0.21085752 0.30070069 0.36982165 0.28008181
0.32538249999999996 0.444007 0.42942221 0.37472729 0.28648482 0.21085752 0.30070069 0.36982165 0.28008181 0.19297999999999998
0.444007 0.42942221 0.37472729 0.28648482 0.21085752 0.30070069 0.36982165 0.28008181 0.19297999999999998 0.20796206
0.42942221 0.37472729 0.28648482 0.21085752 0.30070069 0.36982165 0.28008181 0.19297999999999998 0.20796206 0.2469873
0.37472729 0.28648482 0.21085752 0.30070069 0.36982165 0.28008181 0.19297999999999998 0.20796206 0.2469873 0.20075966
0.28648482 0.21085752 0.30070069 0.36982165 0.28008181 0.19297999999999998 0.20796206 0.2469873 0.20075966 0.1446385
0.21085752 0.30070069 0.36982165 0.28008181 0.19297999999999998 0.20796206 0.2469873 0.20075966 0.1446385 0.18789002
0.30070069 0.36982165 0.28008181 0.19297999999999998 0.20796206 0.2469873 0.20075966 0.1446385 0.18789002 0.15192271
0.36982165 0.28008181 0.19297999999999998 0.20796206 0.2469873 0.20075966 0.1446385 0.18789002 0.15192271 -0.076788917
0.28008181 0.19297999999999998 0.20796206 0.2469873 0.20075966 0.1446385 0.18789002 0.15192271 -0.076788917 -0.096128671
0.19297999999999998 0.20796206 0.2469873 0.20075966 0.1446385 0.18789002 0.15192271 -0.076788917 -0.096128671 0.2018451
0.20796206 0.2469873 0.20075966 0.1446385 0.18789002 0.15192271 -0.076788917 -0.096128671 0.2018451 0.21726842
0.2469873 0.20075966 0.1446385 0.18789002 0.15192271 -0.076788917 -0.096128671 0.2018451 0.21726842 -0.17631623
0.20075966 0.1446385 0.18789002 0.15192271 -0.076788917 -0.096128671 0.2018451 0.21726842 -0.17631623 -0.23526339
0.1446385 0.18789002 0.15192271 -0.076788917 -0.096128671 0.2018451 0.21726842 -0.17631623 -0.23526339 0.015158246
