0.16455766 1.1072882 2.1469641 1.8764232 1.6426157 0.4217124 -1.3478626 -0.57436761 0.38085119 -0.14112818
1.1072882 2.1469641 1.8764232 1.6426157 0.4217124 -1.3478626 -0.57436761 0.38085119 -0.14112818 -0.086251055
2.1469641 1.8764232 1.6426157 0.4217124 -1.3478626 -0.57436761 0.38085119 -0.14112818 -0.086251055 0.22459803
1.8764232 1.6426157 0.4217124 -1.3478626 -0.57436761 0.38085119 -0.14112818 -0.086251055 0.22459803 -0.22780341
1.6426157 0.4217124 -1.3478626 -0.57436761 0.38085119 -0.14112818 -0.086251055 0.22459803 -0.22780341 -0.81511003
0.4217124 -1.3478626 -0.57436761 0.38085119 -0.14112818 -0.086251055 0.22459803 -0.22780341 -0.81511003 -1.019881
-1.3478626 -0.57436761 0.38085119 -0.14112818 -0.086251055 0.22459803 -0.22780341 -0.81511003 -1.019881 -1.1106368999999998
-0.57436761 0.38085119 -0.14112818 -0.086251055 0.22459803 -0.22780341 -0.81511003 -1.019881 -1.1106368999999998 -1.1851544
0.38085119 -0.14112818 -0.086251055 0.22459803 -0.22780341 -0.81511003 -1.019881 -1.1106368999999998 -1.1851544 -1.3335503
-0.14112818 -0.086251055 0.22459803 -0.22780341 -0.81511003 -1.019881 -1.1106368999999998 -1.1851544 -1.3335503 -1.176131
-0.086251055 0.22459803 -0.22780341 -0.81511003 -1.019881 -1.1106368999999998 -1.1851544 -1.3335503 -1.176131 -1.2988095
0.22459803 -0.22780341 -0.81511003 -1.019881 -1.1106368999999998 -1.1851544 -1.3335503 -1.176131 -1.2988095 -1.5780603000000002
-0.22780341 -0.81511003 -1.019881 -1.1106368999999998 -1.1851544 -1.3335503 -1.176131 -1.2988095 -1.5780603000000002 -1.5405676000000001
-0.81511003 -1.019881 -1.1106368999999998 -1.1851544 -1.3335503 -1.176131 -1.2988095 -1.5780603000000002 -1.5405676000000001 -1.6413191999999999
-1.019881 -1.1106368999999998 -1.1851544 -1.3335503 -1.176131 -1.2988095 -1.5780603000000002 -1.5405676000000001 -1.6413191999999999 -1.559647
-1.1106368999999998 -1.1851544 -1.3335503 -1.176131 -1.2988095 -1.5780603000000002 -1.5405676000000001 -1.6413191999999999 -1.559647 -1.6322386
-1.1851544 -1.3335503 -1.176131 -1.2988095 -1.5780603000000002 -1.5405676000000001 -1.6413191999999999 -1.559647 -1.6322386 -1.8853808
-1.3335503 -1.176131 -1.2988095 -1.5780603000000002 -1.5405676000000001 -1.6413191999999999 -1.559647 -1.6322386 -1.8853808 -1.8132508999999999
-1.176131 -1.2988095 -1.5780603000000002 -1.5405676000000001 -1.6413191999999999 -1.559647 -1.6322386 -1.8853808 -1.8132508999999999 -1.8846031000000003
-1.2988095 -1.5780603000000002 -1.5405676000000001 -1.6413191999999999 -1.559647 -1.6322386 -1.8853808 -1.8132508999999999 -1.8846031000000003 -1.9639343999999996
-1.5780603000000002 -1.5405676000000001 -1.6413191999999999 -1.559647 -1.6322386 -1.8853808 -1.8132508999999999 -1.8846031000000003 -1.9639343999999996 -2.0534033
-1.5405676000000001 -1.6413191999999999 -1.559647 -1.6322386 -1.8853808 -1.8132508999999999 -1.8846031000000003 -1.9639343999999996 -2.0534033 -2.0121173999999997
-1.6413191999999999 -1.559647 -1.6322386 -1.8853808 -1.8132508999999999 -1.8846031000000003 -1.9639343999999996 -2.0534033 -2.0121173999999997 -1.9516740000000001
-1.559647 -1.6322386 -1.8853808 -1.8132508999999999 -1.8846031000000003 -1.9639343999999996 -2.0534033 -2.0121173999999997 -1.9516740000000001 -1.909618
-1.6322386 -1.8853808 -1.8132508999999999 -1.8846031000000003 -1.9639343999999996 -2.0534033 -2.0121173999999997 -1.9516740000000001 -1.909618 -1.7048150000000002
-1.8853808 -1.8132508999999999 -1.8846031000000003 -1.9639343999999996 -2.0534033 -2.0121173999999997 -1.9516740000000001 -1.909618 -1.7048150000000002 -1.3393561999999999
-1.8132508999999999 -1.8846031000000003 -1.9639343999999996 -2.0534033 -2.0121173999999997 -1.9516740000000001 -1.909618 -1.7048150000000002 -1.3393561999999999 -1.2274243999999999
-1.8846031000000003 -1.9639343999999996 -2.0534033 -2.0121173999999997 -1.9516740000000001 -1.909618 -1.7048150000000002 -1.3393561999999999 -1.2274243999999999 -0.93414898
-1.9639343999999996 -2.0534033 -2.0121173999999997 -1.9516740000000001 -1.909618 -1.7048150000000002 -1.3393561999999999 -1.2274243999999999 -0.93414898 -0.44911507
-2.0534033 -2.0121173999999997 -1.9516740000000001 -1.909618 -1.7048150000000002 -1.3393561999999999 -1.2274243999999999 -0.93414898 -0.44911507 -0.25494183
-2.0121173999999997 -1.9516740000000001 -1.909618 -1.7048150000000002 -1.3393561999999999 -1.2274243999999999 -0.93414898 -0.44911507 -0.25494183 -0.12825842
-1.9516740000000001 -1.909618 -1.7048150000000002 -1.3393561999999999 -1.2274243999999999 -0.93414898 -0.44911507 -0.25494183 -0.12825842 0.17804408
-1.909618 -1.7048150000000002 -1.3393561999999999 -1.2274243999999999 -0.93414898 -0.44911507 -0.25494183 -0.12825842 0.17804408 0.51285171
-1.7048150000000002 -1.3393561999999999 -1.2274243999999999 -0.93414898 -0.44911507 -0.25494183 -0.12825842 0.17804408 0.51285171 0.42906062
-1.3393561999999999 -1.2274243999999999 -0.93414898 -0.44911507 -0.25494183 -0.12825842 0.17804408 0.51285171 0.42906062 0.7831201999999999
-1.2274243999999999 -0.93414898 -0.44911507 -0.25494183 -0.12825842 0.17804408 0.51285171 0.42906062 0.7831201999999999 0.6607407
-0.93414898 -0.44911507 -0.25494183 -0.12825842 0.17804408 0.51285171 0.42906062 0.7831201999999999 0.6607407 0.77236099
-0.44911507 -0.25494183 -0.12825842 0.17804408 0.51285171 0.42906062 0.7831201999999999 0.6607407 0.77236099 0.94044421
-0.25494183 -0.12825842 0.17804408 0.51285171 0.42906062 0.7831201999999999 0.6607407 0.77236099 0.94044421 0.73659176
-0.12825842 0.17804408 0.51285171 0.42906062 0.7831201999999999 0.6607407 0.77236099 0.94044421 0.73659176 0.72598397
0.17804408 0.51285171 0.42906062 0.7831201999999999 0.6607407 0.77236099 0.94044421 0.73659176 0.72598397 0.67048807
0.51285171 0.42906062 0.7831201999999999 0.6607407 0.77236099 0.94044421 0.73659176 0.72598397 0.67048807 0.79568292
0.42906062 0.7831201999999999 0.6607407 0.77236099 0.94044421 0.73659176 0.72598397 0.67048807 0.79568292 0.61386604
0.7831201999999999 0.6607407 0.77236099 0.94044421 0.73659176 0.72598397 0.67048807 0.79568292 0.61386604 0.54969375
0.6607407 0.77236099 0.94044421 0.73659176 0.72598397 0.67048807 0.79568292 0.61386604 0.54969375 0.75667855
0.77236099 0.94044421 0.73659176 0.72598397 0.67048807 0.79568292 0.61386604 0.54969375 0.75667855 0.51065576
0.94044421 0.73659176 0.72598397 0.67048807 0.79568292 0.61386604 0.54969375 0.75667855 0.51065576 0.5362876
0.73659176 0.72598397 0.67048807 0.79568292 0.61386604 0.54969375 0.75667855 0.51065576 0.5362876 0.50366844
0.72598397 0.67048807 0.79568292 0.61386604 0.54969375 0.75667855 0.51065576 0.5362876 0.50366844 0.68026701
0.67048807 0.79568292 0.61386604 0.54969375 0.75667855 0.51065576 0.5362876 0.50366844 0.68026701 0.87943908
0.79568292 0.61386604 0.54969375 0.75667855 0.51065576 0.5362876 0.50366844 0.68026701 0.87943908 0.49186036
0.61386604 0.54969375 0.75667855 0.51065576 0.5362876 0.50366844 0.68026701 0.87943908 0.49186036 0.50644506
0.54969375 0.75667855 0.51065576 0.5362876 0.50366844 0.68026701 0.87943908 0.49186036 0.50644506 0.71269662
0.75667855 0.51065576 0.5362876 0.50366844 0.68026701 0.87943908 0.49186036 0.50644506 0.71269662 0.60107579
0.51065576 0.5362876 0.50366844 0.68026701 0.87943908 0.49186036 0.50644506 0.71269662 0.60107579 0.71051935
0.5362876 0.50366844 0.68026701 0.87943908 0.49186036 0.50644506 0.71269662 0.60107579 0.71051935 0.67531645
0.50366844 0.68026701 0.87943908 0.49186036 0.50644506 0.71269662 0.60107579 0.71051935 0.67531645 0.54587768
0.68026701 0.87943908 0.49186036 0.50644506 0.71269662 0.60107579 0.71051935 0.67531645 0.54587768 0.65650295
0.87943908 0.49186036 0.50644506 0.71269662 0.60107579 0.71051935 0.67531645 0.54587768 0.65650295 0.56396696
0.49186036 0.50644506 0.71269662 0.60107579 0.71051935 0.67531645 0.54587768 0.65650295 0.56396696 0.51106688
0.50644506 0.71269662 0.60107579 0.71051935 0.67531645 0.54587768 0.65650295 0.56396696 0.51106688 0.596023
0.71269662 0.60107579 0.71051935 0.67531645 0.54587768 0.65650295 0.56396696 0.51106688 0.596023 0.4639162
0.60107579 0.71051935 0.67531645 0.54587768 0.65650295 0.56396696 0.51106688 0.596023 0.4639162 0.52364033
0.71051935 0.67531645 0.54587768 0.65650295 0.56396696 0.51106688 0.596023 0.4639162 0.52364033 0.7881646999999999
0.67531645 0.54587768 0.65650295 0.56396696 0.51106688 0.596023 0.4639162 0.52364033 0.7881646999999999 1.1295005
0.54587768 0.65650295 0.56396696 0.51106688 0.596023 0.4639162 0.52364033 0.7881646999999999 1.1295005 1.1494514999999998
0.65650295 0.56396696 0.51106688 0.596023 0.4639162 0.52364033 0.7881646999999999 1.1295005 1.1494514999999998 0.98225971
0.56396696 0.51106688 0.596023 0.4639162 0.52364033 0.7881646999999999 1.1295005 1.1494514999999998 0.98225971 0.89402163
0.51106688 0.596023 0.4639162 0.52364033 0.7881646999999999 1.1295005 1.1494514999999998 0.98225971 0.89402163 0.76415056
0.596023 0.4639162 0.52364033 0.7881646999999999 1.1295005 1.1494514999999998 0.98225971 0.89402163 0.76415056 0.68591219
0.4639162 0.52364033 0.7881646999999999 1.1295005 1.1494514999999998 0.98225971 0.89402163 0.76415056 0.68591219 0.41375288
0.52364033 0.7881646999999999 1.1295005 1.1494514999999998 0.98225971 0.89402163 0.76415056 0.68591219 0.41375288 0.38834908
0.7881646999999999 1.1295005 1.1494514999999998 0.98225971 0.89402163 0.76415056 0.68591219 0.41375288 0.38834908 0.63458404
1.1295005 1.1494514999999998 0.98225971 0.89402163 0.76415056 0.68591219 0.41375288 0.38834908 0.63458404 0.31396944
1.1494514999999998 0.98225971 0.89402163 0.76415056 0.68591219 0.41375288 0.38834908 0.63458404 0.31396944 0.22409245
0.98225971 0.89402163 0.76415056 0.68591219 0.41375288 0.38834908 0.63458404 0.31396944 0.22409245 0.47256083
0.89402163 0.76415056 0.68591219 0.41375288 0.38834908 0.63458404 0.31396944 0.22409245 0.47256083 0.18463793
0.76415056 0.68591219 0.41375288 0.38834908 0.63458404 0.31396944 0.22409245 0.47256083 0.18463793 0.35553044
0.68591219 0.41375288 0.38834908 0.63458404 0.31396944 0.22409245 0.47256083 0.18463793 0.35553044 0.25334405
0.41375288 0.38834908 0.63458404 0.31396944 0.22409245 0.47256083 0.18463793 0.35553044 0.25334405 0.11911433
0.38834908 0.63458404 0.31396944 0.22409245 0.47256083 0.18463793 0.35553044 0.25334405 0.11911433 0.29623045
0.63458404 0.31396944 0.22409245 0.47256083 0.18463793 0.35553044 0.25334405 0.11911433 0.29623045 0.32212499
0.31396944 0.22409245 0.47256083 0.18463793 0.35553044 0.25334405 0.11911433 0.29623045 0.32212499 0.26349909
0.22409245 0.47256083 0.18463793 0.35553044 0.25334405 0.11911433 0.29623045 0.32212499 0.26349909 0.20450185
0.47256083 0.18463793 0.35553044 0.25334405 0.11911433 0.29623045 0.32212499 0.26349909 0.20450185 0.21071244
0.18463793 0.35553044 0.25334405 0.11911433 0.29623045 0.32212499 0.26349909 0.20450185 0.21071244 0.3972027
0.35553044 0.25334405 0.11911433 0.29623045 0.32212499 0.26349909 0.20450185 0.21071244 0.3972027 0.57304911
