0.41601568 1.1139534 2.1378086 1.9796622 0.65161616 -0.43881608 0.39646958 0.95909097 0.87090753 1.2258174
1.1139534 2.1378086 1.9796622 0.65161616 -0.43881608 0.39646958 0.95909097 0.87090753 1.2258174 0.39357742
2.1378086 1.9796622 0.65161616 -0.43881608 0.39646958 0.95909097 0.87090753 1.2258174 0.39357742 -0.42623237
1.9796622 0.65161616 -0.43881608 0.39646958 0.95909097 0.87090753 1.2258174 0.39357742 -0.42623237 -0.6687601
0.65161616 -0.43881608 0.39646958 0.95909097 0.87090753 1.2258174 0.39357742 -0.42623237 -0.6687601 -0.87512626
-0.43881608 0.39646958 0.95909097 0.87090753 1.2258174 0.39357742 -0.42623237 -0.6687601 -0.87512626 -0.91726551
0.39646958 0.95909097 0.87090753 1.2258174 0.39357742 -0.42623237 -0.6687601 -0.87512626 -0.91726551 -0.92670864
0.95909097 0.87090753 1.2258174 0.39357742 -0.42623237 -0.6687601 -0.87512626 -0.91726551 -0.92670864 -1.0474146
0.87090753 1.2258174 0.39357742 -0.42623237 -0.6687601 -0.87512626 -0.91726551 -0.92670864 -1.0474146 -1.0874926
1.2258174 0.39357742 -0.42623237 -0.6687601 -0.87512626 -0.91726551 -0.92670864 -1.0474146 -1.0874926 -1.1044476
0.39357742 -0.42623237 -0.6687601 -0.87512626 -0.91726551 -0.92670864 -1.0474146 -1.0874926 -1.1044476 -1.403129
-0.42623237 -0.6687601 -0.87512626 -0.91726551 -0.92670864 -1.0474146 -1.0874926 -1.1044476 -1.403129 -1.4854841
-0.6687601 -0.87512626 -0.91726551 -0.92670864 -1.0474146 -1.0874926 -1.1044476 -1.403129 -1.4854841 -1.5943135
-0.87512626 -0.91726551 -0.92670864 -1.0474146 -1.0874926 -1.1044476 -1.403129 -1.4854841 -1.5943135 -1.8601465
-0.91726551 -0.92670864 -1.0474146 -1.0874926 -1.1044476 -1.403129 -1.4854841 -1.5943135 -1.8601465 -2.046753
-0.92670864 -1.0474146 -1.0874926 -1.1044476 -1.403129 -1.4854841 -1.5943135 -1.8601465 -2.046753 -2.1796672000000004
-1.0474146 -1.0874926 -1.1044476 -1.403129 -1.4854841 -1.5943135 -1.8601465 -2.046753 -2.1796672000000004 -2.3354512
-1.0874926 -1.1044476 -1.403129 -1.4854841 -1.5943135 -1.8601465 -2.046753 -2.1796672000000004 -2.3354512 -2.5922908
-1.1044476 -1.403129 -1.4854841 -1.5943135 -1.8601465 -2.046753 -2.1796672000000004 -2.3354512 -2.5922908 -2.5199743999999997
-1.403129 -1.4854841 -1.5943135 -1.8601465 -2.046753 -2.1796672000000004 -2.3354512 -2.5922908 -2.5199743999999997 -2.5636068
-1.4854841 -1.5943135 -1.8601465 -2.046753 -2.1796672000000004 -2.3354512 -2.5922908 -2.5199743999999997 -2.5636068 -2.4376588
-1.5943135 -1.8601465 -2.046753 -2.1796672000000004 -2.3354512 -2.5922908 -2.5199743999999997 -2.5636068 -2.4376588 -2.1830587
-1.8601465 -2.046753 -2.1796672000000004 -2.3354512 -2.5922908 -2.5199743999999997 -2.5636068 -2.4376588 -2.1830587 -1.7220253
-2.046753 -2.1796672000000004 -2.3354512 -2.5922908 -2.5199743999999997 -2.5636068 -2.4376588 -2.1830587 -1.7220253 -1.1826573
-2.1796672000000004 -2.3354512 -2.5922908 -2.5199743999999997 -2.5636068 -2.4376588 -2.1830587 -1.7220253 -1.1826573 -0.8519289000000001
-2.3354512 -2.5922908 -2.5199743999999997 -2.5636068 -2.4376588 -2.1830587 -1.7220253 -1.1826573 -0.8519289000000001 -0.29880549
-2.5922908 -2.5199743999999997 -2.5636068 -2.4376588 -2.1830587 -1.7220253 -1.1826573 -0.8519289000000001 -0.29880549 0.19869091
-2.5199743999999997 -2.5636068 -2.4376588 -2.1830587 -1.7220253 -1.1826573 -0.8519289000000001 -0.29880549 0.19869091 0.34851283
-2.5636068 -2.4376588 -2.1830587 -1.7220253 -1.1826573 -0.8519289000000001 -0.29880549 0.19869091 0.34851283 0.58371481
-2.4376588 -2.1830587 -1.7220253 -1.1826573 -0.8519289000000001 -0.29880549 0.19869091 0.34851283 0.58371481 0.73279471
-2.1830587 -1.7220253 -1.1826573 -0.8519289000000001 -0.29880549 0.19869091 0.34851283 0.58371481 0.73279471 0.76716593
-1.7220253 -1.1826573 -0.8519289000000001 -0.29880549 0.19869091 0.34851283 0.58371481 0.73279471 0.76716593 0.78733714
-1.1826573 -0.8519289000000001 -0.29880549 0.19869091 0.34851283 0.58371481 0.73279471 0.76716593 0.78733714 0.69326988
-0.8519289000000001 -0.29880549 0.19869091 0.34851283 0.58371481 0.73279471 0.76716593 0.78733714 0.69326988 0.71144116
-0.29880549 0.19869091 0.34851283 0.58371481 0.73279471 0.76716593 0.78733714 0.69326988 0.71144116 0.58582127
0.19869091 0.34851283 0.58371481 0.73279471 0.76716593 0.78733714 0.69326988 0.71144116 0.58582127 0.5514357
0.34851283 0.58371481 0.73279471 0.76716593 0.78733714 0.69326988 0.71144116 0.58582127 0.5514357 0.62029303
0.58371481 0.73279471 0.76716593 0.78733714 0.69326988 0.71144116 0.58582127 0.5514357 0.62029303 0.54671487
0.73279471 0.76716593 0.78733714 0.69326988 0.71144116 0.58582127 0.5514357 0.62029303 0.54671487 0.59147075
0.76716593 0.78733714 0.69326988 0.71144116 0.58582127 0.5514357 0.62029303 0.54671487 0.59147075 0.73227223
0.78733714 0.69326988 0.71144116 0.58582127 0.5514357 0.62029303 0.54671487 0.59147075 0.73227223 0.63572084
0.69326988 0.71144116 0.58582127 0.5514357 0.62029303 0.54671487 0.59147075 0.73227223 0.63572084 0.61228671
0.71144116 0.58582127 0.5514357 0.62029303 0.54671487 0.59147075 0.73227223 0.63572084 0.61228671 0.73885847
0.58582127 0.5514357 0.62029303 0.54671487 0.59147075 0.73227223 0.63572084 0.61228671 0.73885847 0.65059694
0.5514357 0.62029303 0.54671487 0.59147075 0.73227223 0.63572084 0.61228671 0.73885847 0.65059694 0.60937563
0.62029303 0.54671487 0.59147075 0.73227223 0.63572084 0.61228671 0.73885847 0.65059694 0.60937563 0.66132781
0.54671487 0.59147075 0.73227223 0.63572084 0.61228671 0.73885847 0.65059694 0.60937563 0.66132781 0.65501714
0.59147075 0.73227223 0.63572084 0.61228671 0.73885847 0.65059694 0.60937563 0.66132781 0.65501714 0.59753475
0.73227223 0.63572084 0.61228671 0.73885847 0.65059694 0.60937563 0.66132781 0.65501714 0.59753475 0.51081229
0.63572084 0.61228671 0.73885847 0.65059694 0.60937563 0.66132781 0.65501714 0.59753475 0.51081229 0.54590224
0.61228671 0.73885847 0.65059694 0.60937563 0.66132781 0.65501714 0.59753475 0.51081229 0.54590224 0.46808777
0.73885847 0.65059694 0.60937563 0.66132781 0.65501714 0.59753475 0.51081229 0.54590224 0.46808777 0.39408489
0.65059694 0.60937563 0.66132781 0.65501714 0.59753475 0.51081229 0.54590224 0.46808777 0.39408489 0.52063614
0.60937563 0.66132781 0.65501714 0.59753475 0.51081229 0.54590224 0.46808777 0.39408489 0.52063614 0.38481373
0.66132781 0.65501714 0.59753475 0.51081229 0.54590224 0.46808777 0.39408489 0.52063614 0.38481373 0.38326677
0.65501714 0.59753475 0.51081229 0.54590224 0.46808777 0.39408489 0.52063614 0.38481373 0.38326677 0.42955704
0.59753475 0.51081229 0.54590224 0.46808777 0.39408489 0.52063614 0.38481373 0.38326677 0.42955704 0.38067482
0.51081229 0.54590224 0.46808777 0.39408489 0.52063614 0.38481373 0.38326677 0.42955704 0.38067482 0.35429443
0.54590224 0.46808777 0.39408489 0.52063614 0.38481373 0.38326677 0.42955704 0.38067482 0.35429443 0.25855047
0.46808777 0.39408489 0.52063614 0.38481373 0.38326677 0.42955704 0.38067482 0.35429443 0.25855047 0.43331664
0.39408489 0.52063614 0.38481373 0.38326677 0.42955704 0.38067482 0.35429443 0.25855047 0.43331664 0.26673068
0.52063614 0.38481373 0.38326677 0.42955704 0.38067482 0.35429443 0.25855047 0.43331664 0.26673068 0.27649564
0.38481373 0.38326677 0.42955704 0.38067482 0.35429443 0.25855047 0.43331664 0.26673068 0.27649564 0.42484835
0.38326677 0.42955704 0.38067482 0.35429443 0.25855047 0.43331664 0.26673068 0.27649564 0.42484835 0.26645232
0.42955704 0.38067482 0.35429443 0.25855047 0.43331664 0.26673068 0.27649564 0.42484835 0.26645232 0.22431914
0.38067482 0.35429443 0.25855047 0.43331664 0.26673068 0.27649564 0.42484835 0.26645232 0.22431914 0.33174276
0.35429443 0.25855047 0.43331664 0.26673068 0.27649564 0.42484835 0.26645232 0.22431914 0.33174276 0.36996738
0.25855047 0.43331664 0.26673068 0.27649564 0.42484835 0.26645232 0.22431914 0.33174276 0.36996738 0.56189262
0.43331664 0.26673068 0.27649564 0.42484835 0.26645232 0.22431914 0.33174276 0.36996738 0.56189262 0.82878253
0.26673068 0.27649564 0.42484835 0.26645232 0.22431914 0.33174276 0.36996738 0.56189262 0.82878253 0.78522788
0.27649564 0.42484835 0.26645232 0.22431914 0.33174276 0.36996738 0.56189262 0.82878253 0.78522788 0.5016838
0.42484835 0.26645232 0.22431914 0.33174276 0.36996738 0.56189262 0.82878253 0.78522788 0.5016838 0.35056739
0.26645232 0.22431914 0.33174276 0.36996738 0.56189262 0.82878253 0.78522788 0.5016838 0.35056739 0.35980422
0.22431914 0.33174276 0.36996738 0.56189262 0.82878253 0.78522788 0.5016838 0.35056739 0.35980422 0.23483690000000002
0.33174276 0.36996738 0.56189262 0.82878253 0.78522788 0.5016838 0.35056739 0.35980422 0.23483690000000002 0.11808351
0.36996738 0.56189262 0.82878253 0.78522788 0.5016838 0.35056739 0.35980422 0.23483690000000002 0.11808351 0.18145228
0.56189262 0.82878253 0.78522788 0.5016838 0.35056739 0.35980422 0.23483690000000002 0.11808351 0.18145228 0.10988031
0.82878253 0.78522788 0.5016838 0.35056739 0.35980422 0.23483690000000002 0.11808351 0.18145228 0.10988031 0.055477548
0.78522788 0.5016838 0.35056739 0.35980422 0.23483690000000002 0.11808351 0.18145228 0.10988031 0.055477548 0.20030573
0.5016838 0.35056739 0.35980422 0.23483690000000002 0.11808351 0.18145228 0.10988031 0.055477548 0.20030573 0.15215851
0.35056739 0.35980422 0.23483690000000002 0.11808351 0.18145228 0.10988031 0.055477548 0.20030573 0.15215851 0.14969937
0.35980422 0.23483690000000002 0.11808351 0.18145228 0.10988031 0.055477548 0.20030573 0.15215851 0.14969937 0.18564482
0.23483690000000002 0.11808351 0.18145228 0.10988031 0.055477548 0.20030573 0.15215851 0.14969937 0.18564482 0.21463268
0.11808351 0.18145228 0.10988031 0.055477548 0.20030573 0.15215851 0.14969937 0.18564482 0.21463268 0.14911729
0.18145228 0.10988031 0.055477548 0.20030573 0.15215851 0.14969937 0.18564482 0.21463268 0.14911729 0.15756237
0.10988031 0.055477548 0.20030573 0.15215851 0.14969937 0.18564482 0.21463268 0.14911729 0.15756237 0.35170592
0.055477548 0.20030573 0.15215851 0.14969937 0.18564482 0.21463268 0.14911729 0.15756237 0.35170592 0.11957296
