0.59824137 1.0987288 1.6835287 2.4789133999999997 2.8024127 2.4386959999999998 1.7176569 1.0093086 0.25735084 -0.22155853
1.0987288 1.6835287 2.4789133999999997 2.8024127 2.4386959999999998 1.7176569 1.0093086 0.25735084 -0.22155853 -0.13558175
1.6835287 2.4789133999999997 2.8024127 2.4386959999999998 1.7176569 1.0093086 0.25735084 -0.22155853 -0.13558175 -0.1912687
2.4789133999999997 2.8024127 2.4386959999999998 1.7176569 1.0093086 0.25735084 -0.22155853 -0.13558175 -0.1912687 -0.30697176
2.8024127 2.4386959999999998 1.7176569 1.0093086 0.25735084 -0.22155853 -0.13558175 -0.1912687 -0.30697176 -0.16764052
2.4386959999999998 1.7176569 1.0093086 0.25735084 -0.22155853 -0.13558175 -0.1912687 -0.30697176 -0.16764052 -0.09800510300000001
1.7176569 1.0093086 0.25735084 -0.22155853 -0.13558175 -0.1912687 -0.30697176 -0.16764052 -0.09800510300000001 -0.056259595999999995
1.0093086 0.25735084 -0.22155853 -0.13558175 -0.1912687 -0.30697176 -0.16764052 -0.09800510300000001 -0.056259595999999995 -0.3234
0.25735084 -0.22155853 -0.13558175 -0.1912687 -0.30697176 -0.16764052 -0.09800510300000001 -0.056259595999999995 -0.3234 -0.6301810999999999
-0.22155853 -0.13558175 -0.1912687 -0.30697176 -0.16764052 -0.09800510300000001 -0.056259595999999995 -0.3234 -0.6301810999999999 -0.56971894
-0.13558175 -0.1912687 -0.30697176 -0.16764052 -0.09800510300000001 -0.056259595999999995 -0.3234 -0.6301810999999999 -0.56971894 -0.70940747
-0.1912687 -0.30697176 -0.16764052 -0.09800510300000001 -0.056259595999999995 -0.3234 -0.6301810999999999 -0.56971894 -0.70940747 -0.75032305
-0.30697176 -0.16764052 -0.09800510300000001 -0.056259595999999995 -0.3234 -0.6301810999999999 -0.56971894 -0.70940747 -0.75032305 -0.67332704
-0.16764052 -0.09800510300000001 -0.056259595999999995 -0.3234 -0.6301810999999999 -0.56971894 -0.70940747 -0.75032305 -0.67332704 -0.98010141
-0.09800510300000001 -0.056259595999999995 -0.3234 -0.6301810999999999 -0.56971894 -0.70940747 -0.75032305 -0.67332704 -0.98010141 -1.2071136
-0.056259595999999995 -0.3234 -0.6301810999999999 -0.56971894 -0.70940747 -0.75032305 -0.67332704 -0.98010141 -1.2071136 -1.1813802
-0.3234 -0.6301810999999999 -0.56971894 -0.70940747 -0.75032305 -0.67332704 -0.98010141 -1.2071136 -1.1813802 -1.0263965
-0.6301810999999999 -0.56971894 -0.70940747 -0.75032305 -0.67332704 -0.98010141 -1.2071136 -1.1813802 -1.0263965 -1.2994876
-0.56971894 -0.70940747 -0.75032305 -0.67332704 -0.98010141 -1.2071136 -1.1813802 -1.0263965 -1.2994876 -1.9288823
-0.70940747 -0.75032305 -0.67332704 -0.98010141 -1.2071136 -1.1813802 -1.0263965 -1.2994876 -1.9288823 -1.9076361000000002
-0.75032305 -0.67332704 -0.98010141 -1.2071136 -1.1813802 -1.0263965 -1.2994876 -1.9288823 -1.9076361000000002 -1.8688252
-0.67332704 -0.98010141 -1.2071136 -1.1813802 -1.0263965 -1.2994876 -1.9288823 -1.9076361000000002 -1.8688252 -1.9906124
-0.98010141 -1.2071136 -1.1813802 -1.0263965 -1.2994876 -1.9288823 -1.9076361000000002 -1.8688252 -1.9906124 -2.0116357
-1.2071136 -1.1813802 -1.0263965 -1.2994876 -1.9288823 -1.9076361000000002 -1.8688252 -1.9906124 -2.0116357 -2.4026522
-1.1813802 -1.0263965 -1.2994876 -1.9288823 -1.9076361000000002 -1.8688252 -1.9906124 -2.0116357 -2.4026522 -2.1440318
-1.0263965 -1.2994876 -1.9288823 -1.9076361000000002 -1.8688252 -1.9906124 -2.0116357 -2.4026522 -2.1440318 -1.6618146
-1.2994876 -1.9288823 -1.9076361000000002 -1.8688252 -1.9906124 -2.0116357 -2.4026522 -2.1440318 -1.6618146 -1.9393573
-1.9288823 -1.9076361000000002 -1.8688252 -1.9906124 -2.0116357 -2.4026522 -2.1440318 -1.6618146 -1.9393573 -1.8722724999999998
-1.9076361000000002 -1.8688252 -1.9906124 -2.0116357 -2.4026522 -2.1440318 -1.6618146 -1.9393573 -1.8722724999999998 -1.5546911
-1.8688252 -1.9906124 -2.0116357 -2.4026522 -2.1440318 -1.6618146 -1.9393573 -1.8722724999999998 -1.5546911 -1.3011939
-1.9906124 -2.0116357 -2.4026522 -2.1440318 -1.6618146 -1.9393573 -1.8722724999999998 -1.5546911 -1.3011939 -1.0164506
-2.0116357 -2.4026522 -2.1440318 -1.6618146 -1.9393573 -1.8722724999999998 -1.5546911 -1.3011939 -1.0164506 -0.97927654
-2.4026522 -2.1440318 -1.6618146 -1.9393573 -1.8722724999999998 -1.5546911 -1.3011939 -1.0164506 -0.97927654 -0.70625453
-2.1440318 -1.6618146 -1.9393573 -1.8722724999999998 -1.5546911 -1.3011939 -1.0164506 -0.97927654 -0.70625453 -0.30337161
-1.6618146 -1.9393573 -1.8722724999999998 -1.5546911 -1.3011939 -1.0164506 -0.97927654 -0.70625453 -0.30337161 -0.012646325
-1.9393573 -1.8722724999999998 -1.5546911 -1.3011939 -1.0164506 -0.97927654 -0.70625453 -0.30337161 -0.012646325 0.169673
-1.8722724999999998 -1.5546911 -1.3011939 -1.0164506 -0.97927654 -0.70625453 -0.30337161 -0.012646325 0.169673 0.091329657
-1.5546911 -1.3011939 -1.0164506 -0.97927654 -0.70625453 -0.30337161 -0.012646325 0.169673 0.091329657 0.25028041
-1.3011939 -1.0164506 -0.97927654 -0.70625453 -0.30337161 -0.012646325 0.169673 0.091329657 0.25028041 0.38726526
-1.0164506 -0.97927654 -0.70625453 -0.30337161 -0.012646325 0.169673 0.091329657 0.25028041 0.38726526 0.25792917
-0.97927654 -0.70625453 -0.30337161 -0.012646325 0.169673 0.091329657 0.25028041 0.38726526 0.25792917 0.42929196
-0.70625453 -0.30337161 -0.012646325 0.169673 0.091329657 0.25028041 0.38726526 0.25792917 0.42929196 0.51751195
-0.30337161 -0.012646325 0.169673 0.091329657 0.25028041 0.38726526 0.25792917 0.42929196 0.51751195 0.40467528
-0.012646325 0.169673 0.091329657 0.25028041 0.38726526 0.25792917 0.42929196 0.51751195 0.40467528 0.51198192
0.169673 0.091329657 0.25028041 0.38726526 0.25792917 0.42929196 0.51751195 0.40467528 0.51198192 0.57732858
0.091329657 0.25028041 0.38726526 0.25792917 0.42929196 0.51751195 0.40467528 0.51198192 0.57732858 0.52189259
0.25028041 0.38726526 0.25792917 0.42929196 0.51751195 0.40467528 0.51198192 0.57732858 0.52189259 0.55256222
0.38726526 0.25792917 0.42929196 0.51751195 0.40467528 0.51198192 0.57732858 0.52189259 0.55256222 0.60213932
0.25792917 0.42929196 0.51751195 0.40467528 0.51198192 0.57732858 0.52189259 0.55256222 0.60213932 0.54817524
0.42929196 0.51751195 0.40467528 0.51198192 0.57732858 0.52189259 0.55256222 0.60213932 0.54817524 0.41385248
0.51751195 0.40467528 0.51198192 0.57732858 0.52189259 0.55256222 0.60213932 0.54817524 0.41385248 0.37404084
0.40467528 0.51198192 0.57732858 0.52189259 0.55256222 0.60213932 0.54817524 0.41385248 0.37404084 0.51866444
0.51198192 0.57732858 0.52189259 0.55256222 0.60213932 0.54817524 0.41385248 0.37404084 0.51866444 0.55101816
0.57732858 0.52189259 0.55256222 0.60213932 0.54817524 0.41385248 0.37404084 0.51866444 0.55101816 0.41477723
0.52189259 0.55256222 0.60213932 0.54817524 0.41385248 0.37404084 0.51866444 0.55101816 0.41477723 0.48080068
0.55256222 0.60213932 0.54817524 0.41385248 0.37404084 0.51866444 0.55101816 0.41477723 0.48080068 0.59543525
0.60213932 0.54817524 0.41385248 0.37404084 0.51866444 0.55101816 0.41477723 0.48080068 0.59543525 0.56873712
0.54817524 0.41385248 0.37404084 0.51866444 0.55101816 0.41477723 0.48080068 0.59543525 0.56873712 0.72196906
0.41385248 0.37404084 0.51866444 0.55101816 0.41477723 0.48080068 0.59543525 0.56873712 0.72196906 0.84312816
0.37404084 0.51866444 0.55101816 0.41477723 0.48080068 0.59543525 0.56873712 0.72196906 0.84312816 0.6168265
0.51866444 0.55101816 0.41477723 0.48080068 0.59543525 0.56873712 0.72196906 0.84312816 0.6168265 0.60801778
0.55101816 0.41477723 0.48080068 0.59543525 0.56873712 0.72196906 0.84312816 0.6168265 0.60801778 0.77629989
0.41477723 0.48080068 0.59543525 0.56873712 0.72196906 0.84312816 0.6168265 0.60801778 0.77629989 0.61682123
0.48080068 0.59543525 0.56873712 0.72196906 0.84312816 0.6168265 0.60801778 0.77629989 0.61682123 0.59952044
0.59543525 0.56873712 0.72196906 0.84312816 0.6168265 0.60801778 0.77629989 0.61682123 0.59952044 0.68892604
0.56873712 0.72196906 0.84312816 0.6168265 0.60801778 0.77629989 0.61682123 0.59952044 0.68892604 0.5307274000000001
0.72196906 0.84312816 0.6168265 0.60801778 0.77629989 0.61682123 0.59952044 0.68892604 0.5307274000000001 0.54462062
0.84312816 0.6168265 0.60801778 0.77629989 0.61682123 0.59952044 0.68892604 0.5307274000000001 0.54462062 0.65981978
0.6168265 0.60801778 0.77629989 0.61682123 0.59952044 0.68892604 0.5307274000000001 0.54462062 0.65981978 0.56485534
0.60801778 0.77629989 0.61682123 0.59952044 0.68892604 0.5307274000000001 0.54462062 0.65981978 0.56485534 0.47263422
0.77629989 0.61682123 0.59952044 0.68892604 0.5307274000000001 0.54462062 0.65981978 0.56485534 0.47263422 0.45420433
0.61682123 0.59952044 0.68892604 0.5307274000000001 0.54462062 0.65981978 0.56485534 0.47263422 0.45420433 0.40649302
0.59952044 0.68892604 0.5307274000000001 0.54462062 0.65981978 0.56485534 0.47263422 0.45420433 0.40649302 0.31572594
0.68892604 0.5307274000000001 0.54462062 0.65981978 0.56485534 0.47263422 0.45420433 0.40649302 0.31572594 0.15547546
0.5307274000000001 0.54462062 0.65981978 0.56485534 0.47263422 0.45420433 0.40649302 0.31572594 0.15547546 0.15012374
0.54462062 0.65981978 0.56485534 0.47263422 0.45420433 0.40649302 0.31572594 0.15547546 0.15012374 0.35439193
0.65981978 0.56485534 0.47263422 0.45420433 0.40649302 0.31572594 0.15547546 0.15012374 0.35439193 0.37869259
0.56485534 0.47263422 0.45420433 0.40649302 0.31572594 0.15547546 0.15012374 0.35439193 0.37869259 0.39462999
0.47263422 0.45420433 0.40649302 0.31572594 0.15547546 0.15012374 0.35439193 0.37869259 0.39462999 0.5257821999999999
0.45420433 0.40649302 0.31572594 0.15547546 0.15012374 0.35439193 0.37869259 0.39462999 0.5257821999999999 0.279348
0.40649302 0.31572594 0.15547546 0.15012374 0.35439193 0.37869259 0.39462999 0.5257821999999999 0.279348 -0.069657784
0.31572594 0.15547546 0.15012374 0.35439193 0.37869259 0.39462999 0.5257821999999999 0.279348 -0.069657784 0.027543961000000002
0.15547546 0.15012374 0.35439193 0.37869259 0.39462999 0.5257821999999999 0.279348 -0.069657784 0.027543961000000002 0.15302475
0.15012374 0.35439193 0.37869259 0.39462999 0.5257821999999999 0.279348 -0.069657784 0.027543961000000002 0.15302475 0.042231911
0.35439193 0.37869259 0.39462999 0.5257821999999999 0.279348 -0.069657784 0.027543961000000002 0.15302475 0.042231911 0.13426885
0.37869259 0.39462999 0.5257821999999999 0.279348 -0.069657784 0.027543961000000002 0.15302475 0.042231911 0.13426885 0.29615038
0.39462999 0.5257821999999999 0.279348 -0.069657784 0.027543961000000002 0.15302475 0.042231911 0.13426885 0.29615038 0.06293182
