0.54309888 1.2273479999999999 2.679487 2.8579347 1.7048162 -0.020583018 -0.68932496 0.94154136 1.1063916999999999 1.0760684999999999
1.2273479999999999 2.679487 2.8579347 1.7048162 -0.020583018 -0.68932496 0.94154136 1.1063916999999999 1.0760684999999999 1.7448192
2.679487 2.8579347 1.7048162 -0.020583018 -0.68932496 0.94154136 1.1063916999999999 1.0760684999999999 1.7448192 0.77982663
2.8579347 1.7048162 -0.020583018 -0.68932496 0.94154136 1.1063916999999999 1.0760684999999999 1.7448192 0.77982663 -0.21725383
1.7048162 -0.020583018 -0.68932496 0.94154136 1.1063916999999999 1.0760684999999999 1.7448192 0.77982663 -0.21725383 -0.93104466
-0.020583018 -0.68932496 0.94154136 1.1063916999999999 1.0760684999999999 1.7448192 0.77982663 -0.21725383 -0.93104466 -0.69332449
-0.68932496 0.94154136 1.1063916999999999 1.0760684999999999 1.7448192 0.77982663 -0.21725383 -0.93104466 -0.69332449 -0.68116191
0.94154136 1.1063916999999999 1.0760684999999999 1.7448192 0.77982663 -0.21725383 -0.93104466 -0.69332449 -0.68116191 -1.0850947
1.1063916999999999 1.0760684999999999 1.7448192 0.77982663 -0.21725383 -0.93104466 -0.69332449 -0.68116191 -1.0850947 -1.2432011
1.0760684999999999 1.7448192 0.77982663 -0.21725383 -0.93104466 -0.69332449 -0.68116191 -1.0850947 -1.2432011 -0.95819628
1.7448192 0.77982663 -0.21725383 -0.93104466 -0.69332449 -0.68116191 -1.0850947 -1.2432011 -0.95819628 -1.2711155
0.77982663 -0.21725383 -0.93104466 -0.69332449 -0.68116191 -1.0850947 -1.2432011 -0.95819628 -1.2711155 -1.3248697
-0.21725383 -0.93104466 -0.69332449 -0.68116191 -1.0850947 -1.2432011 -0.95819628 -1.2711155 -1.3248697 -1.3877443999999999
-0.93104466 -0.69332449 -0.68116191 -1.0850947 -1.2432011 -0.95819628 -1.2711155 -1.3248697 -1.3877443999999999 -1.3868555
-0.69332449 -0.68116191 -1.0850947 -1.2432011 -0.95819628 -1.2711155 -1.3248697 -1.3877443999999999 -1.3868555 -1.5890792
-0.68116191 -1.0850947 -1.2432011 -0.95819628 -1.2711155 -1.3248697 -1.3877443999999999 -1.3868555 -1.5890792 -1.6979127
-1.0850947 -1.2432011 -0.95819628 -1.2711155 -1.3248697 -1.3877443999999999 -1.3868555 -1.5890792 -1.6979127 -1.2655322
-1.2432011 -0.95819628 -1.2711155 -1.3248697 -1.3877443999999999 -1.3868555 -1.5890792 -1.6979127 -1.2655322 -2.039071
-0.95819628 -1.2711155 -1.3248697 -1.3877443999999999 -1.3868555 -1.5890792 -1.6979127 -1.2655322 -2.039071 -1.8232325
-1.2711155 -1.3248697 -1.3877443999999999 -1.3868555 -1.5890792 -1.6979127 -1.2655322 -2.039071 -1.8232325 -1.7430023000000001
-1.3248697 -1.3877443999999999 -1.3868555 -1.5890792 -1.6979127 -1.2655322 -2.039071 -1.8232325 -1.7430023000000001 -2.1419924
-1.3877443999999999 -1.3868555 -1.5890792 -1.6979127 -1.2655322 -2.039071 -1.8232325 -1.7430023000000001 -2.1419924 -1.6471363999999997
-1.3868555 -1.5890792 -1.6979127 -1.2655322 -2.039071 -1.8232325 -1.7430023000000001 -2.1419924 -1.6471363999999997 -2.0623913000000003
-1.5890792 -1.6979127 -1.2655322 -2.039071 -1.8232325 -1.7430023000000001 -2.1419924 -1.6471363999999997 -2.0623913000000003 -2.0291769
-1.6979127 -1.2655322 -2.039071 -1.8232325 -1.7430023000000001 -2.1419924 -1.6471363999999997 -2.0623913000000003 -2.0291769 -1.2298643
-1.2655322 -2.039071 -1.8232325 -1.7430023000000001 -2.1419924 -1.6471363999999997 -2.0623913000000003 -2.0291769 -1.2298643 -1.372587
-2.039071 -1.8232325 -1.7430023000000001 -2.1419924 -1.6471363999999997 -2.0623913000000003 -2.0291769 -1.2298643 -1.372587 -1.0862406999999998
-1.8232325 -1.7430023000000001 -2.1419924 -1.6471363999999997 -2.0623913000000003 -2.0291769 -1.2298643 -1.372587 -1.0862406999999998 -0.68922668
-1.7430023000000001 -2.1419924 -1.6471363999999997 -2.0623913000000003 -2.0291769 -1.2298643 -1.372587 -1.0862406999999998 -0.68922668 -0.37195083
-2.1419924 -1.6471363999999997 -2.0623913000000003 -2.0291769 -1.2298643 -1.372587 -1.0862406999999998 -0.68922668 -0.37195083 0.049284624000000006
-1.6471363999999997 -2.0623913000000003 -2.0291769 -1.2298643 -1.372587 -1.0862406999999998 -0.68922668 -0.37195083 0.049284624000000006 0.29082207
-2.0623913000000003 -2.0291769 -1.2298643 -1.372587 -1.0862406999999998 -0.68922668 -0.37195083 0.049284624000000006 0.29082207 0.69879606
-2.0291769 -1.2298643 -1.372587 -1.0862406999999998 -0.68922668 -0.37195083 0.049284624000000006 0.29082207 0.69879606 0.76111322
-1.2298643 -1.372587 -1.0862406999999998 -0.68922668 -0.37195083 0.049284624000000006 0.29082207 0.69879606 0.76111322 0.95658979
-1.372587 -1.0862406999999998 -0.68922668 -0.37195083 0.049284624000000006 0.29082207 0.69879606 0.76111322 0.95658979 0.88487032
-1.0862406999999998 -0.68922668 -0.37195083 0.049284624000000006 0.29082207 0.69879606 0.76111322 0.95658979 0.88487032 1.3254705
-0.68922668 -0.37195083 0.049284624000000006 0.29082207 0.69879606 0.76111322 0.95658979 0.88487032 1.3254705 1.12168
-0.37195083 0.049284624000000006 0.29082207 0.69879606 0.76111322 0.95658979 0.88487032 1.3254705 1.12168 0.85714374
0.049284624000000006 0.29082207 0.69879606 0.76111322 0.95658979 0.88487032 1.3254705 1.12168 0.85714374 0.82838041
0.29082207 0.69879606 0.76111322 0.95658979 0.88487032 1.3254705 1.12168 0.85714374 0.82838041 0.77034371
0.69879606 0.76111322 0.95658979 0.88487032 1.3254705 1.12168 0.85714374 0.82838041 0.77034371 1.0531116000000003
0.76111322 0.95658979 0.88487032 1.3254705 1.12168 0.85714374 0.82838041 0.77034371 1.0531116000000003 0.66660903
0.95658979 0.88487032 1.3254705 1.12168 0.85714374 0.82838041 0.77034371 1.0531116000000003 0.66660903 0.33452822
0.88487032 1.3254705 1.12168 0.85714374 0.82838041 0.77034371 1.0531116000000003 0.66660903 0.33452822 0.57657724
1.3254705 1.12168 0.85714374 0.82838041 0.77034371 1.0531116000000003 0.66660903 0.33452822 0.57657724 0.72304696
1.12168 0.85714374 0.82838041 0.77034371 1.0531116000000003 0.66660903 0.33452822 0.57657724 0.72304696 0.48691358
0.85714374 0.82838041 0.77034371 1.0531116000000003 0.66660903 0.33452822 0.57657724 0.72304696 0.48691358 0.43315019
0.82838041 0.77034371 1.0531116000000003 0.66660903 0.33452822 0.57657724 0.72304696 0.48691358 0.43315019 0.73476578
0.77034371 1.0531116000000003 0.66660903 0.33452822 0.57657724 0.72304696 0.48691358 0.43315019 0.73476578 0.47376668
1.0531116000000003 0.66660903 0.33452822 0.57657724 0.72304696 0.48691358 0.43315019 0.73476578 0.47376668 0.56453023
0.66660903 0.33452822 0.57657724 0.72304696 0.48691358 0.43315019 0.73476578 0.47376668 0.56453023 0.29504326
0.33452822 0.57657724 0.72304696 0.48691358 0.43315019 0.73476578 0.47376668 0.56453023 0.29504326 0.57950571
0.57657724 0.72304696 0.48691358 0.43315019 0.73476578 0.47376668 0.56453023 0.29504326 0.57950571 0.5002742
0.72304696 0.48691358 0.43315019 0.73476578 0.47376668 0.56453023 0.29504326 0.57950571 0.5002742 0.20682548
0.48691358 0.43315019 0.73476578 0.47376668 0.56453023 0.29504326 0.57950571 0.5002742 0.20682548 0.71296551
0.43315019 0.73476578 0.47376668 0.56453023 0.29504326 0.57950571 0.5002742 0.20682548 0.71296551 0.33679193
0.73476578 0.47376668 0.56453023 0.29504326 0.57950571 0.5002742 0.20682548 0.71296551 0.33679193 0.15079792
0.47376668 0.56453023 0.29504326 0.57950571 0.5002742 0.20682548 0.71296551 0.33679193 0.15079792 0.38030674
0.56453023 0.29504326 0.57950571 0.5002742 0.20682548 0.71296551 0.33679193 0.15079792 0.38030674 0.18678888
0.29504326 0.57950571 0.5002742 0.20682548 0.71296551 0.33679193 0.15079792 0.38030674 0.18678888 -0.0094597512
0.57950571 0.5002742 0.20682548 0.71296551 0.33679193 0.15079792 0.38030674 0.18678888 -0.0094597512 0.161135
0.5002742 0.20682548 0.71296551 0.33679193 0.15079792 0.38030674 0.18678888 -0.0094597512 0.161135 0.29586526
0.20682548 0.71296551 0.33679193 0.15079792 0.38030674 0.18678888 -0.0094597512 0.161135 0.29586526 0.007685635600000001
0.71296551 0.33679193 0.15079792 0.38030674 0.18678888 -0.0094597512 0.161135 0.29586526 0.007685635600000001 0.17710925
0.33679193 0.15079792 0.38030674 0.18678888 -0.0094597512 0.161135 0.29586526 0.007685635600000001 0.17710925 0.41285417
0.15079792 0.38030674 0.18678888 -0.0094597512 0.161135 0.29586526 0.007685635600000001 0.17710925 0.41285417 0.26696005
0.38030674 0.18678888 -0.0094597512 0.161135 0.29586526 0.007685635600000001 0.17710925 0.41285417 0.26696005 0.95372582
0.18678888 -0.0094597512 0.161135 0.29586526 0.007685635600000001 0.17710925 0.41285417 0.26696005 0.95372582 0.81309132
-0.0094597512 0.161135 0.29586526 0.007685635600000001 0.17710925 0.41285417 0.26696005 0.95372582 0.81309132 0.25147222
0.161135 0.29586526 0.007685635600000001 0.17710925 0.41285417 0.26696005 0.95372582 0.81309132 0.25147222 0.4759238
0.29586526 0.007685635600000001 0.17710925 0.41285417 0.26696005 0.95372582 0.81309132 0.25147222 0.4759238 0.34864870000000003
0.007685635600000001 0.17710925 0.41285417 0.26696005 0.95372582 0.81309132 0.25147222 0.4759238 0.34864870000000003 0.21627786
0.17710925 0.41285417 0.26696005 0.95372582 0.81309132 0.25147222 0.4759238 0.34864870000000003 0.21627786 -0.16607008
0.41285417 0.26696005 0.95372582 0.81309132 0.25147222 0.4759238 0.34864870000000003 0.21627786 -0.16607008 -0.17753246
0.26696005 0.95372582 0.81309132 0.25147222 0.4759238 0.34864870000000003 0.21627786 -0.16607008 -0.17753246 0.07161300599999999
0.95372582 0.81309132 0.25147222 0.4759238 0.34864870000000003 0.21627786 -0.16607008 -0.17753246 0.07161300599999999 -0.20267628
0.81309132 0.25147222 0.4759238 0.34864870000000003 0.21627786 -0.16607008 -0.17753246 0.07161300599999999 -0.20267628 -0.25024911
0.25147222 0.4759238 0.34864870000000003 0.21627786 -0.16607008 -0.17753246 0.07161300599999999 -0.20267628 -0.25024911 0.082940898
0.4759238 0.34864870000000003 0.21627786 -0.16607008 -0.17753246 0.07161300599999999 -0.20267628 -0.25024911 0.082940898 -0.23944672
0.34864870000000003 0.21627786 -0.16607008 -0.17753246 0.07161300599999999 -0.20267628 -0.25024911 0.082940898 -0.23944672 -0.37375371
0.21627786 -0.16607008 -0.17753246 0.07161300599999999 -0.20267628 -0.25024911 0.082940898 -0.23944672 -0.37375371 -0.09598598300000001
-0.16607008 -0.17753246 0.07161300599999999 -0.20267628 -0.25024911 0.082940898 -0.23944672 -0.37375371 -0.09598598300000001 -0.17753834
-0.17753246 0.07161300599999999 -0.20267628 -0.25024911 0.082940898 -0.23944672 -0.37375371 -0.09598598300000001 -0.17753834 -0.043046738
0.07161300599999999 -0.20267628 -0.25024911 0.082940898 -0.23944672 -0.37375371 -0.09598598300000001 -0.17753834 -0.043046738 -0.15926192
-0.20267628 -0.25024911 0.082940898 -0.23944672 -0.37375371 -0.09598598300000001 -0.17753834 -0.043046738 -0.15926192 -0.23934588
-0.25024911 0.082940898 -0.23944672 -0.37375371 -0.09598598300000001 -0.17753834 -0.043046738 -0.15926192 -0.23934588 -0.060706022000000005
0.082940898 -0.23944672 -0.37375371 -0.09598598300000001 -0.17753834 -0.043046738 -0.15926192 -0.23934588 -0.060706022000000005 -0.26418938
