0.56688351 0.59276786 2.1505681 3.3019652 1.7582258000000002 -0.10959189 -1.3994646000000002 -0.59941349 0.2362639 0.18299708
0.59276786 2.1505681 3.3019652 1.7582258000000002 -0.10959189 -1.3994646000000002 -0.59941349 0.2362639 0.18299708 -0.10913651
2.1505681 3.3019652 1.7582258000000002 -0.10959189 -1.3994646000000002 -0.59941349 0.2362639 0.18299708 -0.10913651 -0.37201856
3.3019652 1.7582258000000002 -0.10959189 -1.3994646000000002 -0.59941349 0.2362639 0.18299708 -0.10913651 -0.37201856 0.10176102
1.7582258000000002 -0.10959189 -1.3994646000000002 -0.59941349 0.2362639 0.18299708 -0.10913651 -0.37201856 0.10176102 -0.91047504
-0.10959189 -1.3994646000000002 -0.59941349 0.2362639 0.18299708 -0.10913651 -0.37201856 0.10176102 -0.91047504 -1.0245056000000001
-1.3994646000000002 -0.59941349 0.2362639 0.18299708 -0.10913651 -0.37201856 0.10176102 -0.91047504 -1.0245056000000001 -1.0119139000000001
-0.59941349 0.2362639 0.18299708 -0.10913651 -0.37201856 0.10176102 -0.91047504 -1.0245056000000001 -1.0119139000000001 -1.1543758
0.2362639 0.18299708 -0.10913651 -0.37201856 0.10176102 -0.91047504 -1.0245056000000001 -1.0119139000000001 -1.1543758 -1.2901829
0.18299708 -0.10913651 -0.37201856 0.10176102 -0.91047504 -1.0245056000000001 -1.0119139000000001 -1.1543758 -1.2901829 -1.2730993999999998
-0.10913651 -0.37201856 0.10176102 -0.91047504 -1.0245056000000001 -1.0119139000000001 -1.1543758 -1.2901829 -1.2730993999999998 -1.1593025
-0.37201856 0.10176102 -0.91047504 -1.0245056000000001 -1.0119139000000001 -1.1543758 -1.2901829 -1.2730993999999998 -1.1593025 -1.299877
0.10176102 -0.91047504 -1.0245056000000001 -1.0119139000000001 -1.1543758 -1.2901829 -1.2730993999999998 -1.1593025 -1.299877 -1.5995593000000001
-0.91047504 -1.0245056000000001 -1.0119139000000001 -1.1543758 -1.2901829 -1.2730993999999998 -1.1593025 -1.299877 -1.5995593000000001 -1.4791533000000001
-1.0245056000000001 -1.0119139000000001 -1.1543758 -1.2901829 -1.2730993999999998 -1.1593025 -1.299877 -1.5995593000000001 -1.4791533000000001 -1.40468
-1.0119139000000001 -1.1543758 -1.2901829 -1.2730993999999998 -1.1593025 -1.299877 -1.5995593000000001 -1.4791533000000001 -1.40468 -1.6714886000000002
-1.1543758 -1.2901829 -1.2730993999999998 -1.1593025 -1.299877 -1.5995593000000001 -1.4791533000000001 -1.40468 -1.6714886000000002 -1.6117656
-1.2901829 -1.2730993999999998 -1.1593025 -1.299877 -1.5995593000000001 -1.4791533000000001 -1.40468 -1.6714886000000002 -1.6117656 -1.900671
-1.2730993999999998 -1.1593025 -1.299877 -1.5995593000000001 -1.4791533000000001 -1.40468 -1.6714886000000002 -1.6117656 -1.900671 -2.0397056
-1.1593025 -1.299877 -1.5995593000000001 -1.4791533000000001 -1.40468 -1.6714886000000002 -1.6117656 -1.900671 -2.0397056 -1.8474293999999998
-1.299877 -1.5995593000000001 -1.4791533000000001 -1.40468 -1.6714886000000002 -1.6117656 -1.900671 -2.0397056 -1.8474293999999998 -2.0187986
-1.5995593000000001 -1.4791533000000001 -1.40468 -1.6714886000000002 -1.6117656 -1.900671 -2.0397056 -1.8474293999999998 -2.0187986 -2.0558872
-1.4791533000000001 -1.40468 -1.6714886000000002 -1.6117656 -1.900671 -2.0397056 -1.8474293999999998 -2.0187986 -2.0558872 -1.5811505
-1.40468 -1.6714886000000002 -1.6117656 -1.900671 -2.0397056 -1.8474293999999998 -2.0187986 -2.0558872 -1.5811505 -1.7307928
-1.6714886000000002 -1.6117656 -1.900671 -2.0397056 -1.8474293999999998 -2.0187986 -2.0558872 -1.5811505 -1.7307928 -1.6191702
-1.6117656 -1.900671 -2.0397056 -1.8474293999999998 -2.0187986 -2.0558872 -1.5811505 -1.7307928 -1.6191702 -1.7977861000000002
-1.900671 -2.0397056 -1.8474293999999998 -2.0187986 -2.0558872 -1.5811505 -1.7307928 -1.6191702 -1.7977861000000002 -0.57250426
-2.0397056 -1.8474293999999998 -2.0187986 -2.0558872 -1.5811505 -1.7307928 -1.6191702 -1.7977861000000002 -0.57250426 -0.36223781
-1.8474293999999998 -2.0187986 -2.0558872 -1.5811505 -1.7307928 -1.6191702 -1.7977861000000002 -0.57250426 -0.36223781 -0.43257802
-2.0187986 -2.0558872 -1.5811505 -1.7307928 -1.6191702 -1.7977861000000002 -0.57250426 -0.36223781 -0.43257802 0.27759356
-2.0558872 -1.5811505 -1.7307928 -1.6191702 -1.7977861000000002 -0.57250426 -0.36223781 -0.43257802 0.27759356 -0.17472507
-1.5811505 -1.7307928 -1.6191702 -1.7977861000000002 -0.57250426 -0.36223781 -0.43257802 0.27759356 -0.17472507 1.0226472
-1.7307928 -1.6191702 -1.7977861000000002 -0.57250426 -0.36223781 -0.43257802 0.27759356 -0.17472507 1.0226472 0.62304847
-1.6191702 -1.7977861000000002 -0.57250426 -0.36223781 -0.43257802 0.27759356 -0.17472507 1.0226472 0.62304847 1.0621585
-1.7977861000000002 -0.57250426 -0.36223781 -0.43257802 0.27759356 -0.17472507 1.0226472 0.62304847 1.0621585 1.1361201
-0.57250426 -0.36223781 -0.43257802 0.27759356 -0.17472507 1.0226472 0.62304847 1.0621585 1.1361201 0.91592227
-0.36223781 -0.43257802 0.27759356 -0.17472507 1.0226472 0.62304847 1.0621585 1.1361201 0.91592227 0.95371796
-0.43257802 0.27759356 -0.17472507 1.0226472 0.62304847 1.0621585 1.1361201 0.91592227 0.95371796 0.78110657
0.27759356 -0.17472507 1.0226472 0.62304847 1.0621585 1.1361201 0.91592227 0.95371796 0.78110657 0.95437031
-0.17472507 1.0226472 0.62304847 1.0621585 1.1361201 0.91592227 0.95371796 0.78110657 0.95437031 0.49887536
1.0226472 0.62304847 1.0621585 1.1361201 0.91592227 0.95371796 0.78110657 0.95437031 0.49887536 0.82314511
0.62304847 1.0621585 1.1361201 0.91592227 0.95371796 0.78110657 0.95437031 0.49887536 0.82314511 0.76074078
1.0621585 1.1361201 0.91592227 0.95371796 0.78110657 0.95437031 0.49887536 0.82314511 0.76074078 0.50969389
1.1361201 0.91592227 0.95371796 0.78110657 0.95437031 0.49887536 0.82314511 0.76074078 0.50969389 0.69827638
0.91592227 0.95371796 0.78110657 0.95437031 0.49887536 0.82314511 0.76074078 0.50969389 0.69827638 0.19078711
0.95371796 0.78110657 0.95437031 0.49887536 0.82314511 0.76074078 0.50969389 0.69827638 0.19078711 0.73331042
0.78110657 0.95437031 0.49887536 0.82314511 0.76074078 0.50969389 0.69827638 0.19078711 0.73331042 0.30120014
0.95437031 0.49887536 0.82314511 0.76074078 0.50969389 0.69827638 0.19078711 0.73331042 0.30120014 0.38008205
0.49887536 0.82314511 0.76074078 0.50969389 0.69827638 0.19078711 0.73331042 0.30120014 0.38008205 0.85431086
0.82314511 0.76074078 0.50969389 0.69827638 0.19078711 0.73331042 0.30120014 0.38008205 0.85431086 0.46170592
0.76074078 0.50969389 0.69827638 0.19078711 0.73331042 0.30120014 0.38008205 0.85431086 0.46170592 0.22523491
0.50969389 0.69827638 0.19078711 0.73331042 0.30120014 0.38008205 0.85431086 0.46170592 0.22523491 0.39193027
0.69827638 0.19078711 0.73331042 0.30120014 0.38008205 0.85431086 0.46170592 0.22523491 0.39193027 0.53771638
0.19078711 0.73331042 0.30120014 0.38008205 0.85431086 0.46170592 0.22523491 0.39193027 0.53771638 0.46554921
0.73331042 0.30120014 0.38008205 0.85431086 0.46170592 0.22523491 0.39193027 0.53771638 0.46554921 0.33460700000000004
0.30120014 0.38008205 0.85431086 0.46170592 0.22523491 0.39193027 0.53771638 0.46554921 0.33460700000000004 0.31563109
0.38008205 0.85431086 0.46170592 0.22523491 0.39193027 0.53771638 0.46554921 0.33460700000000004 0.31563109 0.33141428
0.85431086 0.46170592 0.22523491 0.39193027 0.53771638 0.46554921 0.33460700000000004 0.31563109 0.33141428 0.25275833
0.46170592 0.22523491 0.39193027 0.53771638 0.46554921 0.33460700000000004 0.31563109 0.33141428 0.25275833 0.42246533
0.22523491 0.39193027 0.53771638 0.46554921 0.33460700000000004 0.31563109 0.33141428 0.25275833 0.42246533 0.33733818
0.39193027 0.53771638 0.46554921 0.33460700000000004 0.31563109 0.33141428 0.25275833 0.42246533 0.33733818 0.023032784
0.53771638 0.46554921 0.33460700000000004 0.31563109 0.33141428 0.25275833 0.42246533 0.33733818 0.023032784 0.4818057
0.46554921 0.33460700000000004 0.31563109 0.33141428 0.25275833 0.42246533 0.33733818 0.023032784 0.4818057 0.071660347
0.33460700000000004 0.31563109 0.33141428 0.25275833 0.42246533 0.33733818 0.023032784 0.4818057 0.071660347 0.38076003
0.31563109 0.33141428 0.25275833 0.42246533 0.33733818 0.023032784 0.4818057 0.071660347 0.38076003 0.91484009
0.33141428 0.25275833 0.42246533 0.33733818 0.023032784 0.4818057 0.071660347 0.38076003 0.91484009 0.65785024
0.25275833 0.42246533 0.33733818 0.023032784 0.4818057 0.071660347 0.38076003 0.91484009 0.65785024 0.89767758
0.42246533 0.33733818 0.023032784 0.4818057 0.071660347 0.38076003 0.91484009 0.65785024 0.89767758 0.96119214
0.33733818 0.023032784 0.4818057 0.071660347 0.38076003 0.91484009 0.65785024 0.89767758 0.96119214 0.75030932
0.023032784 0.4818057 0.071660347 0.38076003 0.91484009 0.65785024 0.89767758 0.96119214 0.75030932 0.44026878
0.4818057 0.071660347 0.38076003 0.91484009 0.65785024 0.89767758 0.96119214 0.75030932 0.44026878 0.39289158
0.071660347 0.38076003 0.91484009 0.65785024 0.89767758 0.96119214 0.75030932 0.44026878 0.39289158 0.42709083
0.38076003 0.91484009 0.65785024 0.89767758 0.96119214 0.75030932 0.44026878 0.39289158 0.42709083 0.15915583
0.91484009 0.65785024 0.89767758 0.96119214 0.75030932 0.44026878 0.39289158 0.42709083 0.15915583 0.28951514
0.65785024 0.89767758 0.96119214 0.75030932 0.44026878 0.39289158 0.42709083 0.15915583 0.28951514 0.12219964
0.89767758 0.96119214 0.75030932 0.44026878 0.39289158 0.42709083 0.15915583 0.28951514 0.12219964 0.15607143
0.96119214 0.75030932 0.44026878 0.39289158 0.42709083 0.15915583 0.28951514 0.12219964 0.15607143 0.43353887
0.75030932 0.44026878 0.39289158 0.42709083 0.15915583 0.28951514 0.12219964 0.15607143 0.43353887 0.48783112
0.44026878 0.39289158 0.42709083 0.15915583 0.28951514 0.12219964 0.15607143 0.43353887 0.48783112 0.19882026
0.39289158 0.42709083 0.15915583 0.28951514 0.12219964 0.15607143 0.43353887 0.48783112 0.19882026 0.058043925999999996
0.42709083 0.15915583 0.28951514 0.12219964 0.15607143 0.43353887 0.48783112 0.19882026 0.058043925999999996 0.42292114
0.15915583 0.28951514 0.12219964 0.15607143 0.43353887 0.48783112 0.19882026 0.058043925999999996 0.42292114 0.44391869
0.28951514 0.12219964 0.15607143 0.43353887 0.48783112 0.19882026 0.058043925999999996 0.42292114 0.44391869 0.22725647
0.12219964 0.15607143 0.43353887 0.48783112 0.19882026 0.058043925999999996 0.42292114 0.44391869 0.22725647 0.51162874
0.15607143 0.43353887 0.48783112 0.19882026 0.058043925999999996 0.42292114 0.44391869 0.22725647 0.51162874 0.35540963
0.43353887 0.48783112 0.19882026 0.058043925999999996 0.42292114 0.44391869 0.22725647 0.51162874 0.35540963 0.30971768
0.48783112 0.19882026 0.058043925999999996 0.42292114 0.44391869 0.22725647 0.51162874 0.35540963 0.30971768 0.59314197
