0.78922775 2.0527997 3.6115296999999997 3.8177296999999997 2.4657895 0.69777517 -0.7662826 0.37966856 0.76403919 0.25773427
2.0527997 3.6115296999999997 3.8177296999999997 2.4657895 0.69777517 -0.7662826 0.37966856 0.76403919 0.25773427 0.53011349
3.6115296999999997 3.8177296999999997 2.4657895 0.69777517 -0.7662826 0.37966856 0.76403919 0.25773427 0.53011349 0.19901945
3.8177296999999997 2.4657895 0.69777517 -0.7662826 0.37966856 0.76403919 0.25773427 0.53011349 0.19901945 0.35027834
2.4657895 0.69777517 -0.7662826 0.37966856 0.76403919 0.25773427 0.53011349 0.19901945 0.35027834 -0.31242445
0.69777517 -0.7662826 0.37966856 0.76403919 0.25773427 0.53011349 0.19901945 0.35027834 -0.31242445 -0.32041774
-0.7662826 0.37966856 0.76403919 0.25773427 0.53011349 0.19901945 0.35027834 -0.31242445 -0.32041774 -0.46188239
0.37966856 0.76403919 0.25773427 0.53011349 0.19901945 0.35027834 -0.31242445 -0.32041774 -0.46188239 -0.5554543000000001
0.76403919 0.25773427 0.53011349 0.19901945 0.35027834 -0.31242445 -0.32041774 -0.46188239 -0.5554543000000001 -0.66719228
0.25773427 0.53011349 0.19901945 0.35027834 -0.31242445 -0.32041774 -0.46188239 -0.5554543000000001 -0.66719228 -0.74946479
0.53011349 0.19901945 0.35027834 -0.31242445 -0.32041774 -0.46188239 -0.5554543000000001 -0.66719228 -0.74946479 -0.88504613
0.19901945 0.35027834 -0.31242445 -0.32041774 -0.46188239 -0.5554543000000001 -0.66719228 -0.74946479 -0.88504613 -0.98084889
0.35027834 -0.31242445 -0.32041774 -0.46188239 -0.5554543000000001 -0.66719228 -0.74946479 -0.88504613 -0.98084889 -1.0631133
-0.31242445 -0.32041774 -0.46188239 -0.5554543000000001 -0.66719228 -0.74946479 -0.88504613 -0.98084889 -1.0631133 -1.0495431999999998
-0.32041774 -0.46188239 -0.5554543000000001 -0.66719228 -0.74946479 -0.88504613 -0.98084889 -1.0631133 -1.0495431999999998 -1.125052
-0.46188239 -0.5554543000000001 -0.66719228 -0.74946479 -0.88504613 -0.98084889 -1.0631133 -1.0495431999999998 -1.125052 -1.5179636
-0.5554543000000001 -0.66719228 -0.74946479 -0.88504613 -0.98084889 -1.0631133 -1.0495431999999998 -1.125052 -1.5179636 -1.4808782
-0.66719228 -0.74946479 -0.88504613 -0.98084889 -1.0631133 -1.0495431999999998 -1.125052 -1.5179636 -1.4808782 -1.5101052
-0.74946479 -0.88504613 -0.98084889 -1.0631133 -1.0495431999999998 -1.125052 -1.5179636 -1.4808782 -1.5101052 -1.6477548
-0.88504613 -0.98084889 -1.0631133 -1.0495431999999998 -1.125052 -1.5179636 -1.4808782 -1.5101052 -1.6477548 -1.7577504000000002
-0.98084889 -1.0631133 -1.0495431999999998 -1.125052 -1.5179636 -1.4808782 -1.5101052 -1.6477548 -1.7577504000000002 -1.80272
-1.0631133 -1.0495431999999998 -1.125052 -1.5179636 -1.4808782 -1.5101052 -1.6477548 -1.7577504000000002 -1.80272 -1.7923121
-1.0495431999999998 -1.125052 -1.5179636 -1.4808782 -1.5101052 -1.6477548 -1.7577504000000002 -1.80272 -1.7923121 -1.8687786
-1.125052 -1.5179636 -1.4808782 -1.5101052 -1.6477548 -1.7577504000000002 -1.80272 -1.7923121 -1.8687786 -1.7035305
-1.5179636 -1.4808782 -1.5101052 -1.6477548 -1.7577504000000002 -1.80272 -1.7923121 -1.8687786 -1.7035305 -1.5778579
-1.4808782 -1.5101052 -1.6477548 -1.7577504000000002 -1.80272 -1.7923121 -1.8687786 -1.7035305 -1.5778579 -1.3327342
-1.5101052 -1.6477548 -1.7577504000000002 -1.80272 -1.7923121 -1.8687786 -1.7035305 -1.5778579 -1.3327342 -1.1428383
-1.6477548 -1.7577504000000002 -1.80272 -1.7923121 -1.8687786 -1.7035305 -1.5778579 -1.3327342 -1.1428383 -0.9810673000000001
-1.7577504000000002 -1.80272 -1.7923121 -1.8687786 -1.7035305 -1.5778579 -1.3327342 -1.1428383 -0.9810673000000001 -0.2403431
-1.80272 -1.7923121 -1.8687786 -1.7035305 -1.5778579 -1.3327342 -1.1428383 -0.9810673000000001 -0.2403431 -0.14656932
-1.7923121 -1.8687786 -1.7035305 -1.5778579 -1.3327342 -1.1428383 -0.9810673000000001 -0.2403431 -0.14656932 0.034652327000000004
-1.8687786 -1.7035305 -1.5778579 -1.3327342 -1.1428383 -0.9810673000000001 -0.2403431 -0.14656932 0.034652327000000004 0.607216
-1.7035305 -1.5778579 -1.3327342 -1.1428383 -0.9810673000000001 -0.2403431 -0.14656932 0.034652327000000004 0.607216 0.48034294
-1.5778579 -1.3327342 -1.1428383 -0.9810673000000001 -0.2403431 -0.14656932 0.034652327000000004 0.607216 0.48034294 0.88051888
-1.3327342 -1.1428383 -0.9810673000000001 -0.2403431 -0.14656932 0.034652327000000004 0.607216 0.48034294 0.88051888 0.83146028
-1.1428383 -0.9810673000000001 -0.2403431 -0.14656932 0.034652327000000004 0.607216 0.48034294 0.88051888 0.83146028 0.88194502
-0.9810673000000001 -0.2403431 -0.14656932 0.034652327000000004 0.607216 0.48034294 0.88051888 0.83146028 0.88194502 1.0550705
-0.2403431 -0.14656932 0.034652327000000004 0.607216 0.48034294 0.88051888 0.83146028 0.88194502 1.0550705 1.0051729
-0.14656932 0.034652327000000004 0.607216 0.48034294 0.88051888 0.83146028 0.88194502 1.0550705 1.0051729 0.92835156
0.034652327000000004 0.607216 0.48034294 0.88051888 0.83146028 0.88194502 1.0550705 1.0051729 0.92835156 0.82209831
0.607216 0.48034294 0.88051888 0.83146028 0.88194502 1.0550705 1.0051729 0.92835156 0.82209831 0.83763418
0.48034294 0.88051888 0.83146028 0.88194502 1.0550705 1.0051729 0.92835156 0.82209831 0.83763418 0.7933129
0.88051888 0.83146028 0.88194502 1.0550705 1.0051729 0.92835156 0.82209831 0.83763418 0.7933129 0.64607175
0.83146028 0.88194502 1.0550705 1.0051729 0.92835156 0.82209831 0.83763418 0.7933129 0.64607175 0.58251883
0.88194502 1.0550705 1.0051729 0.92835156 0.82209831 0.83763418 0.7933129 0.64607175 0.58251883 0.65238373
1.0550705 1.0051729 0.92835156 0.82209831 0.83763418 0.7933129 0.64607175 0.58251883 0.65238373 0.52280559
1.0051729 0.92835156 0.82209831 0.83763418 0.7933129 0.64607175 0.58251883 0.65238373 0.52280559 0.47384318
0.92835156 0.82209831 0.83763418 0.7933129 0.64607175 0.58251883 0.65238373 0.52280559 0.47384318 0.56195589
0.82209831 0.83763418 0.7933129 0.64607175 0.58251883 0.65238373 0.52280559 0.47384318 0.56195589 0.58331543
0.83763418 0.7933129 0.64607175 0.58251883 0.65238373 0.52280559 0.47384318 0.56195589 0.58331543 0.5285568
0.7933129 0.64607175 0.58251883 0.65238373 0.52280559 0.47384318 0.56195589 0.58331543 0.5285568 0.40636335
0.64607175 0.58251883 0.65238373 0.52280559 0.47384318 0.56195589 0.58331543 0.5285568 0.40636335 0.49938868
0.58251883 0.65238373 0.52280559 0.47384318 0.56195589 0.58331543 0.5285568 0.40636335 0.49938868 0.4173809
0.65238373 0.52280559 0.47384318 0.56195589 0.58331543 0.5285568 0.40636335 0.49938868 0.4173809 0.42487472
0.52280559 0.47384318 0.56195589 0.58331543 0.5285568 0.40636335 0.49938868 0.4173809 0.42487472 0.36774037
0.47384318 0.56195589 0.58331543 0.5285568 0.40636335 0.49938868 0.4173809 0.42487472 0.36774037 0.33871158
0.56195589 0.58331543 0.5285568 0.40636335 0.49938868 0.4173809 0.42487472 0.36774037 0.33871158 0.31958909
0.58331543 0.5285568 0.40636335 0.49938868 0.4173809 0.42487472 0.36774037 0.33871158 0.31958909 0.049830321
0.5285568 0.40636335 0.49938868 0.4173809 0.42487472 0.36774037 0.33871158 0.31958909 0.049830321 0.36299497
0.40636335 0.49938868 0.4173809 0.42487472 0.36774037 0.33871158 0.31958909 0.049830321 0.36299497 0.30737553
0.49938868 0.4173809 0.42487472 0.36774037 0.33871158 0.31958909 0.049830321 0.36299497 0.30737553 0.0036182657
0.4173809 0.42487472 0.36774037 0.33871158 0.31958909 0.049830321 0.36299497 0.30737553 0.0036182657 0.033593107000000004
0.42487472 0.36774037 0.33871158 0.31958909 0.049830321 0.36299497 0.30737553 0.0036182657 0.033593107000000004 -0.00022251767999999998
0.36774037 0.33871158 0.31958909 0.049830321 0.36299497 0.30737553 0.0036182657 0.033593107000000004 -0.00022251767999999998 0.15016706
0.33871158 0.31958909 0.049830321 0.36299497 0.30737553 0.0036182657 0.033593107000000004 -0.00022251767999999998 0.15016706 0.38758647
0.31958909 0.049830321 0.36299497 0.30737553 0.0036182657 0.033593107000000004 -0.00022251767999999998 0.15016706 0.38758647 0.34819104
0.049830321 0.36299497 0.30737553 0.0036182657 0.033593107000000004 -0.00022251767999999998 0.15016706 0.38758647 0.34819104 0.44368902
0.36299497 0.30737553 0.0036182657 0.033593107000000004 -0.00022251767999999998 0.15016706 0.38758647 0.34819104 0.44368902 0.46841463
0.30737553 0.0036182657 0.033593107000000004 -0.00022251767999999998 0.15016706 0.38758647 0.34819104 0.44368902 0.46841463 0.43036021
0.0036182657 0.033593107000000004 -0.00022251767999999998 0.15016706 0.38758647 0.34819104 0.44368902 0.46841463 0.43036021 0.14604406
0.033593107000000004 -0.00022251767999999998 0.15016706 0.38758647 0.34819104 0.44368902 0.46841463 0.43036021 0.14604406 -0.14166323
-0.00022251767999999998 0.15016706 0.38758647 0.34819104 0.44368902 0.46841463 0.43036021 0.14604406 -0.14166323 -0.088109529
0.15016706 0.38758647 0.34819104 0.44368902 0.46841463 0.43036021 0.14604406 -0.14166323 -0.088109529 -0.23576055
0.38758647 0.34819104 0.44368902 0.46841463 0.43036021 0.14604406 -0.14166323 -0.088109529 -0.23576055 -0.3770084
0.34819104 0.44368902 0.46841463 0.43036021 0.14604406 -0.14166323 -0.088109529 -0.23576055 -0.3770084 -0.52753813
0.44368902 0.46841463 0.43036021 0.14604406 -0.14166323 -0.088109529 -0.23576055 -0.3770084 -0.52753813 -0.27322359
0.46841463 0.43036021 0.14604406 -0.14166323 -0.088109529 -0.23576055 -0.3770084 -0.52753813 -0.27322359 -0.31913813
0.43036021 0.14604406 -0.14166323 -0.088109529 -0.23576055 -0.3770084 -0.52753813 -0.27322359 -0.31913813 -0.48795808
0.14604406 -0.14166323 -0.088109529 -0.23576055 -0.3770084 -0.52753813 -0.27322359 -0.31913813 -0.48795808 -0.42076006
-0.14166323 -0.088109529 -0.23576055 -0.3770084 -0.52753813 -0.27322359 -0.31913813 -0.48795808 -0.42076006 -0.3968943
-0.088109529 -0.23576055 -0.3770084 -0.52753813 -0.27322359 -0.31913813 -0.48795808 -0.42076006 -0.3968943 -0.44396148
-0.23576055 -0.3770084 -0.52753813 -0.27322359 -0.31913813 -0.48795808 -0.42076006 -0.3968943 -0.44396148 -0.4724151
-0.3770084 -0.52753813 -0.27322359 -0.31913813 -0.48795808 -0.42076006 -0.3968943 -0.44396148 -0.4724151 -0.37748997
-0.52753813 -0.27322359 -0.31913813 -0.48795808 -0.42076006 -0.3968943 -0.44396148 -0.4724151 -0.37748997 -0.345073
-0.27322359 -0.31913813 -0.48795808 -0.42076006 -0.3968943 -0.44396148 -0.4724151 -0.37748997 -0.345073 -0.34179463
-0.31913813 -0.48795808 -0.42076006 -0.3968943 -0.44396148 -0.4724151 -0.37748997 -0.345073 -0.34179463 -0.44912173
-0.48795808 -0.42076006 -0.3968943 -0.44396148 -0.4724151 -0.37748997 -0.345073 -0.34179463 -0.44912173 -0.39278702
