0.92756523 1.2653326 2.6947366 3.920299 2.6225412 1.5789118 0.32293635 0.033836143 1.3215228 1.4228921
1.2653326 2.6947366 3.920299 2.6225412 1.5789118 0.32293635 0.033836143 1.3215228 1.4228921 1.0230605
2.6947366 3.920299 2.6225412 1.5789118 0.32293635 0.033836143 1.3215228 1.4228921 1.0230605 1.1996818999999999
3.920299 2.6225412 1.5789118 0.32293635 0.033836143 1.3215228 1.4228921 1.0230605 1.1996818999999999 1.1087683000000002
2.6225412 1.5789118 0.32293635 0.033836143 1.3215228 1.4228921 1.0230605 1.1996818999999999 1.1087683000000002 0.027013266
1.5789118 0.32293635 0.033836143 1.3215228 1.4228921 1.0230605 1.1996818999999999 1.1087683000000002 0.027013266 -0.44294995
0.32293635 0.033836143 1.3215228 1.4228921 1.0230605 1.1996818999999999 1.1087683000000002 0.027013266 -0.44294995 -0.51068862
0.033836143 1.3215228 1.4228921 1.0230605 1.1996818999999999 1.1087683000000002 0.027013266 -0.44294995 -0.51068862 -0.56287703
1.3215228 1.4228921 1.0230605 1.1996818999999999 1.1087683000000002 0.027013266 -0.44294995 -0.51068862 -0.56287703 -0.70542121
1.4228921 1.0230605 1.1996818999999999 1.1087683000000002 0.027013266 -0.44294995 -0.51068862 -0.56287703 -0.70542121 -0.75027758
1.0230605 1.1996818999999999 1.1087683000000002 0.027013266 -0.44294995 -0.51068862 -0.56287703 -0.70542121 -0.75027758 -0.89062943
1.1996818999999999 1.1087683000000002 0.027013266 -0.44294995 -0.51068862 -0.56287703 -0.70542121 -0.75027758 -0.89062943 -0.84207435
1.1087683000000002 0.027013266 -0.44294995 -0.51068862 -0.56287703 -0.70542121 -0.75027758 -0.89062943 -0.84207435 -0.83651524
0.027013266 -0.44294995 -0.51068862 -0.56287703 -0.70542121 -0.75027758 -0.89062943 -0.84207435 -0.83651524 -1.1818528
-0.44294995 -0.51068862 -0.56287703 -0.70542121 -0.75027758 -0.89062943 -0.84207435 -0.83651524 -1.1818528 -1.1827903
-0.51068862 -0.56287703 -0.70542121 -0.75027758 -0.89062943 -0.84207435 -0.83651524 -1.1818528 -1.1827903 -1.1317294
-0.56287703 -0.70542121 -0.75027758 -0.89062943 -0.84207435 -0.83651524 -1.1818528 -1.1827903 -1.1317294 -1.2840466999999998
-0.70542121 -0.75027758 -0.89062943 -0.84207435 -0.83651524 -1.1818528 -1.1827903 -1.1317294 -1.2840466999999998 -1.5164673999999998
-0.75027758 -0.89062943 -0.84207435 -0.83651524 -1.1818528 -1.1827903 -1.1317294 -1.2840466999999998 -1.5164673999999998 -1.6958164
-0.89062943 -0.84207435 -0.83651524 -1.1818528 -1.1827903 -1.1317294 -1.2840466999999998 -1.5164673999999998 -1.6958164 -1.6965506999999997
-0.84207435 -0.83651524 -1.1818528 -1.1827903 -1.1317294 -1.2840466999999998 -1.5164673999999998 -1.6958164 -1.6965506999999997 -1.7925315
-0.83651524 -1.1818528 -1.1827903 -1.1317294 -1.2840466999999998 -1.5164673999999998 -1.6958164 -1.6965506999999997 -1.7925315 -1.8976218
-1.1818528 -1.1827903 -1.1317294 -1.2840466999999998 -1.5164673999999998 -1.6958164 -1.6965506999999997 -1.7925315 -1.8976218 -1.8771656000000003
-1.1827903 -1.1317294 -1.2840466999999998 -1.5164673999999998 -1.6958164 -1.6965506999999997 -1.7925315 -1.8976218 -1.8771656000000003 -1.7712398
-1.1317294 -1.2840466999999998 -1.5164673999999998 -1.6958164 -1.6965506999999997 -1.7925315 -1.8976218 -1.8771656000000003 -1.7712398 -1.6629641
-1.2840466999999998 -1.5164673999999998 -1.6958164 -1.6965506999999997 -1.7925315 -1.8976218 -1.8771656000000003 -1.7712398 -1.6629641 -1.5371582000000001
-1.5164673999999998 -1.6958164 -1.6965506999999997 -1.7925315 -1.8976218 -1.8771656000000003 -1.7712398 -1.6629641 -1.5371582000000001 -1.2909561999999999
-1.6958164 -1.6965506999999997 -1.7925315 -1.8976218 -1.8771656000000003 -1.7712398 -1.6629641 -1.5371582000000001 -1.2909561999999999 -1.0182203
-1.6965506999999997 -1.7925315 -1.8976218 -1.8771656000000003 -1.7712398 -1.6629641 -1.5371582000000001 -1.2909561999999999 -1.0182203 -0.70704915
-1.7925315 -1.8976218 -1.8771656000000003 -1.7712398 -1.6629641 -1.5371582000000001 -1.2909561999999999 -1.0182203 -0.70704915 -0.5545525
-1.8976218 -1.8771656000000003 -1.7712398 -1.6629641 -1.5371582000000001 -1.2909561999999999 -1.0182203 -0.70704915 -0.5545525 -0.21021234
-1.8771656000000003 -1.7712398 -1.6629641 -1.5371582000000001 -1.2909561999999999 -1.0182203 -0.70704915 -0.5545525 -0.21021234 0.23040657
-1.7712398 -1.6629641 -1.5371582000000001 -1.2909561999999999 -1.0182203 -0.70704915 -0.5545525 -0.21021234 0.23040657 0.20546223
-1.6629641 -1.5371582000000001 -1.2909561999999999 -1.0182203 -0.70704915 -0.5545525 -0.21021234 0.23040657 0.20546223 0.44585189
-1.5371582000000001 -1.2909561999999999 -1.0182203 -0.70704915 -0.5545525 -0.21021234 0.23040657 0.20546223 0.44585189 0.60619663
-1.2909561999999999 -1.0182203 -0.70704915 -0.5545525 -0.21021234 0.23040657 0.20546223 0.44585189 0.60619663 0.74692934
-1.0182203 -0.70704915 -0.5545525 -0.21021234 0.23040657 0.20546223 0.44585189 0.60619663 0.74692934 0.7264539000000001
-0.70704915 -0.5545525 -0.21021234 0.23040657 0.20546223 0.44585189 0.60619663 0.74692934 0.7264539000000001 0.82563918
-0.5545525 -0.21021234 0.23040657 0.20546223 0.44585189 0.60619663 0.74692934 0.7264539000000001 0.82563918 0.98929816
-0.21021234 0.23040657 0.20546223 0.44585189 0.60619663 0.74692934 0.7264539000000001 0.82563918 0.98929816 0.79614569
0.23040657 0.20546223 0.44585189 0.60619663 0.74692934 0.7264539000000001 0.82563918 0.98929816 0.79614569 0.63808687
0.20546223 0.44585189 0.60619663 0.74692934 0.7264539000000001 0.82563918 0.98929816 0.79614569 0.63808687 0.60042026
0.44585189 0.60619663 0.74692934 0.7264539000000001 0.82563918 0.98929816 0.79614569 0.63808687 0.60042026 0.75238309
0.60619663 0.74692934 0.7264539000000001 0.82563918 0.98929816 0.79614569 0.63808687 0.60042026 0.75238309 0.71155734
0.74692934 0.7264539000000001 0.82563918 0.98929816 0.79614569 0.63808687 0.60042026 0.75238309 0.71155734 0.46213547
0.7264539000000001 0.82563918 0.98929816 0.79614569 0.63808687 0.60042026 0.75238309 0.71155734 0.46213547 0.48055229
0.82563918 0.98929816 0.79614569 0.63808687 0.60042026 0.75238309 0.71155734 0.46213547 0.48055229 0.60995137
0.98929816 0.79614569 0.63808687 0.60042026 0.75238309 0.71155734 0.46213547 0.48055229 0.60995137 0.71068658
0.79614569 0.63808687 0.60042026 0.75238309 0.71155734 0.46213547 0.48055229 0.60995137 0.71068658 0.41261837
0.63808687 0.60042026 0.75238309 0.71155734 0.46213547 0.48055229 0.60995137 0.71068658 0.41261837 0.45535569
0.60042026 0.75238309 0.71155734 0.46213547 0.48055229 0.60995137 0.71068658 0.41261837 0.45535569 0.58211136
0.75238309 0.71155734 0.46213547 0.48055229 0.60995137 0.71068658 0.41261837 0.45535569 0.58211136 0.44616485
0.71155734 0.46213547 0.48055229 0.60995137 0.71068658 0.41261837 0.45535569 0.58211136 0.44616485 0.42490389
0.46213547 0.48055229 0.60995137 0.71068658 0.41261837 0.45535569 0.58211136 0.44616485 0.42490389 0.38499871
0.48055229 0.60995137 0.71068658 0.41261837 0.45535569 0.58211136 0.44616485 0.42490389 0.38499871 0.37825735
0.60995137 0.71068658 0.41261837 0.45535569 0.58211136 0.44616485 0.42490389 0.38499871 0.37825735 0.36084126
0.71068658 0.41261837 0.45535569 0.58211136 0.44616485 0.42490389 0.38499871 0.37825735 0.36084126 0.37322856
0.41261837 0.45535569 0.58211136 0.44616485 0.42490389 0.38499871 0.37825735 0.36084126 0.37322856 0.20037254
0.45535569 0.58211136 0.44616485 0.42490389 0.38499871 0.37825735 0.36084126 0.37322856 0.20037254 0.077666612
0.58211136 0.44616485 0.42490389 0.38499871 0.37825735 0.36084126 0.37322856 0.20037254 0.077666612 0.22276803
0.44616485 0.42490389 0.38499871 0.37825735 0.36084126 0.37322856 0.20037254 0.077666612 0.22276803 0.068980794
0.42490389 0.38499871 0.37825735 0.36084126 0.37322856 0.20037254 0.077666612 0.22276803 0.068980794 0.064950174
0.38499871 0.37825735 0.36084126 0.37322856 0.20037254 0.077666612 0.22276803 0.068980794 0.064950174 -0.065661771
0.37825735 0.36084126 0.37322856 0.20037254 0.077666612 0.22276803 0.068980794 0.064950174 -0.065661771 0.17737849
0.36084126 0.37322856 0.20037254 0.077666612 0.22276803 0.068980794 0.064950174 -0.065661771 0.17737849 0.40220431
0.37322856 0.20037254 0.077666612 0.22276803 0.068980794 0.064950174 -0.065661771 0.17737849 0.40220431 0.36716136
0.20037254 0.077666612 0.22276803 0.068980794 0.064950174 -0.065661771 0.17737849 0.40220431 0.36716136 0.54228558
0.077666612 0.22276803 0.068980794 0.064950174 -0.065661771 0.17737849 0.40220431 0.36716136 0.54228558 0.38647193
0.22276803 0.068980794 0.064950174 -0.065661771 0.17737849 0.40220431 0.36716136 0.54228558 0.38647193 0.24674897
0.068980794 0.064950174 -0.065661771 0.17737849 0.40220431 0.36716136 0.54228558 0.38647193 0.24674897 0.067658329
0.064950174 -0.065661771 0.17737849 0.40220431 0.36716136 0.54228558 0.38647193 0.24674897 0.067658329 -0.16459179999999998
-0.065661771 0.17737849 0.40220431 0.36716136 0.54228558 0.38647193 0.24674897 0.067658329 -0.16459179999999998 -0.14152796
0.17737849 0.40220431 0.36716136 0.54228558 0.38647193 0.24674897 0.067658329 -0.16459179999999998 -0.14152796 -0.40596293
0.40220431 0.36716136 0.54228558 0.38647193 0.24674897 0.067658329 -0.16459179999999998 -0.14152796 -0.40596293 -0.39321336
0.36716136 0.54228558 0.38647193 0.24674897 0.067658329 -0.16459179999999998 -0.14152796 -0.40596293 -0.39321336 -0.33064101
0.54228558 0.38647193 0.24674897 0.067658329 -0.16459179999999998 -0.14152796 -0.40596293 -0.39321336 -0.33064101 -0.57649678
0.38647193 0.24674897 0.067658329 -0.16459179999999998 -0.14152796 -0.40596293 -0.39321336 -0.33064101 -0.57649678 -0.4072113
0.24674897 0.067658329 -0.16459179999999998 -0.14152796 -0.40596293 -0.39321336 -0.33064101 -0.57649678 -0.4072113 -0.3543673
0.067658329 -0.16459179999999998 -0.14152796 -0.40596293 -0.39321336 -0.33064101 -0.57649678 -0.4072113 -0.3543673 -0.58097188
-0.16459179999999998 -0.14152796 -0.40596293 -0.39321336 -0.33064101 -0.57649678 -0.4072113 -0.3543673 -0.58097188 -0.3997525
-0.14152796 -0.40596293 -0.39321336 -0.33064101 -0.57649678 -0.4072113 -0.3543673 -0.58097188 -0.3997525 -0.48712573
-0.40596293 -0.39321336 -0.33064101 -0.57649678 -0.4072113 -0.3543673 -0.58097188 -0.3997525 -0.48712573 -0.54087628
-0.39321336 -0.33064101 -0.57649678 -0.4072113 -0.3543673 -0.58097188 -0.3997525 -0.48712573 -0.54087628 -0.40869314
-0.33064101 -0.57649678 -0.4072113 -0.3543673 -0.58097188 -0.3997525 -0.48712573 -0.54087628 -0.40869314 -0.56790338
-0.57649678 -0.4072113 -0.3543673 -0.58097188 -0.3997525 -0.48712573 -0.54087628 -0.40869314 -0.56790338 -0.47168556
-0.4072113 -0.3543673 -0.58097188 -0.3997525 -0.48712573 -0.54087628 -0.40869314 -0.56790338 -0.47168556 -0.44379437
-0.3543673 -0.58097188 -0.3997525 -0.48712573 -0.54087628 -0.40869314 -0.56790338 -0.47168556 -0.44379437 -0.3595461
