0.34263832 0.88226289 1.6426063000000002 1.9629229 1.7741008000000003 1.6433305 1.2459171 0.56180853 -0.032995131000000004 -0.34645009
0.88226289 1.6426063000000002 1.9629229 1.7741008000000003 1.6433305 1.2459171 0.56180853 -0.032995131000000004 -0.34645009 -0.11860832
1.6426063000000002 1.9629229 1.7741008000000003 1.6433305 1.2459171 0.56180853 -0.032995131000000004 -0.34645009 -0.11860832 -0.052680343
1.9629229 1.7741008000000003 1.6433305 1.2459171 0.56180853 -0.032995131000000004 -0.34645009 -0.11860832 -0.052680343 -0.4085353
1.7741008000000003 1.6433305 1.2459171 0.56180853 -0.032995131000000004 -0.34645009 -0.11860832 -0.052680343 -0.4085353 -0.26670168
1.6433305 1.2459171 0.56180853 -0.032995131000000004 -0.34645009 -0.11860832 -0.052680343 -0.4085353 -0.26670168 -0.068461616
1.2459171 0.56180853 -0.032995131000000004 -0.34645009 -0.11860832 -0.052680343 -0.4085353 -0.26670168 -0.068461616 -0.29902080000000003
0.56180853 -0.032995131000000004 -0.34645009 -0.11860832 -0.052680343 -0.4085353 -0.26670168 -0.068461616 -0.29902080000000003 -0.43211096
-0.032995131000000004 -0.34645009 -0.11860832 -0.052680343 -0.4085353 -0.26670168 -0.068461616 -0.29902080000000003 -0.43211096 -0.64048897
-0.34645009 -0.11860832 -0.052680343 -0.4085353 -0.26670168 -0.068461616 -0.29902080000000003 -0.43211096 -0.64048897 -0.92019333
-0.11860832 -0.052680343 -0.4085353 -0.26670168 -0.068461616 -0.29902080000000003 -0.43211096 -0.64048897 -0.92019333 -0.95060688
-0.052680343 -0.4085353 -0.26670168 -0.068461616 -0.29902080000000003 -0.43211096 -0.64048897 -0.92019333 -0.95060688 -0.97577933
-0.4085353 -0.26670168 -0.068461616 -0.29902080000000003 -0.43211096 -0.64048897 -0.92019333 -0.95060688 -0.97577933 -1.0752104999999998
-0.26670168 -0.068461616 -0.29902080000000003 -0.43211096 -0.64048897 -0.92019333 -0.95060688 -0.97577933 -1.0752104999999998 -1.1348472
-0.068461616 -0.29902080000000003 -0.43211096 -0.64048897 -0.92019333 -0.95060688 -0.97577933 -1.0752104999999998 -1.1348472 -1.1679503999999998
-0.29902080000000003 -0.43211096 -0.64048897 -0.92019333 -0.95060688 -0.97577933 -1.0752104999999998 -1.1348472 -1.1679503999999998 -1.1909087
-0.43211096 -0.64048897 -0.92019333 -0.95060688 -0.97577933 -1.0752104999999998 -1.1348472 -1.1679503999999998 -1.1909087 -1.2593464
-0.64048897 -0.92019333 -0.95060688 -0.97577933 -1.0752104999999998 -1.1348472 -1.1679503999999998 -1.1909087 -1.2593464 -1.3656620000000002
-0.92019333 -0.95060688 -0.97577933 -1.0752104999999998 -1.1348472 -1.1679503999999998 -1.1909087 -1.2593464 -1.3656620000000002 -1.4339247
-0.95060688 -0.97577933 -1.0752104999999998 -1.1348472 -1.1679503999999998 -1.1909087 -1.2593464 -1.3656620000000002 -1.4339247 -1.5117986
-0.97577933 -1.0752104999999998 -1.1348472 -1.1679503999999998 -1.1909087 -1.2593464 -1.3656620000000002 -1.4339247 -1.5117986 -1.639218
-1.0752104999999998 -1.1348472 -1.1679503999999998 -1.1909087 -1.2593464 -1.3656620000000002 -1.4339247 -1.5117986 -1.639218 -1.6745116999999998
-1.1348472 -1.1679503999999998 -1.1909087 -1.2593464 -1.3656620000000002 -1.4339247 -1.5117986 -1.639218 -1.6745116999999998 -1.6928927
-1.1679503999999998 -1.1909087 -1.2593464 -1.3656620000000002 -1.4339247 -1.5117986 -1.639218 -1.6745116999999998 -1.6928927 -1.8213737
-1.1909087 -1.2593464 -1.3656620000000002 -1.4339247 -1.5117986 -1.639218 -1.6745116999999998 -1.6928927 -1.8213737 -1.8415655
-1.2593464 -1.3656620000000002 -1.4339247 -1.5117986 -1.639218 -1.6745116999999998 -1.6928927 -1.8213737 -1.8415655 -1.790643
-1.3656620000000002 -1.4339247 -1.5117986 -1.639218 -1.6745116999999998 -1.6928927 -1.8213737 -1.8415655 -1.790643 -1.8774667
-1.4339247 -1.5117986 -1.639218 -1.6745116999999998 -1.6928927 -1.8213737 -1.8415655 -1.790643 -1.8774667 -1.8989846000000001
-1.5117986 -1.639218 -1.6745116999999998 -1.6928927 -1.8213737 -1.8415655 -1.790643 -1.8774667 -1.8989846000000001 -1.7790234
-1.639218 -1.6745116999999998 -1.6928927 -1.8213737 -1.8415655 -1.790643 -1.8774667 -1.8989846000000001 -1.7790234 -1.7076467
-1.6745116999999998 -1.6928927 -1.8213737 -1.8415655 -1.790643 -1.8774667 -1.8989846000000001 -1.7790234 -1.7076467 -1.5758465
-1.6928927 -1.8213737 -1.8415655 -1.790643 -1.8774667 -1.8989846000000001 -1.7790234 -1.7076467 -1.5758465 -1.3088118
-1.8213737 -1.8415655 -1.790643 -1.8774667 -1.8989846000000001 -1.7790234 -1.7076467 -1.5758465 -1.3088118 -1.1428573
-1.8415655 -1.790643 -1.8774667 -1.8989846000000001 -1.7790234 -1.7076467 -1.5758465 -1.3088118 -1.1428573 -1.026722
-1.790643 -1.8774667 -1.8989846000000001 -1.7790234 -1.7076467 -1.5758465 -1.3088118 -1.1428573 -1.026722 -0.74848478
-1.8774667 -1.8989846000000001 -1.7790234 -1.7076467 -1.5758465 -1.3088118 -1.1428573 -1.026722 -0.74848478 -0.45905543
-1.8989846000000001 -1.7790234 -1.7076467 -1.5758465 -1.3088118 -1.1428573 -1.026722 -0.74848478 -0.45905543 -0.28540927
-1.7790234 -1.7076467 -1.5758465 -1.3088118 -1.1428573 -1.026722 -0.74848478 -0.45905543 -0.28540927 -0.16207785
-1.7076467 -1.5758465 -1.3088118 -1.1428573 -1.026722 -0.74848478 -0.45905543 -0.28540927 -0.16207785 -0.15106789999999998
-1.5758465 -1.3088118 -1.1428573 -1.026722 -0.74848478 -0.45905543 -0.28540927 -0.16207785 -0.15106789999999998 -0.13861278
-1.3088118 -1.1428573 -1.026722 -0.74848478 -0.45905543 -0.28540927 -0.16207785 -0.15106789999999998 -0.13861278 0.11033553
-1.1428573 -1.026722 -0.74848478 -0.45905543 -0.28540927 -0.16207785 -0.15106789999999998 -0.13861278 0.11033553 0.26845744
-1.026722 -0.74848478 -0.45905543 -0.28540927 -0.16207785 -0.15106789999999998 -0.13861278 0.11033553 0.26845744 0.19691003
-0.74848478 -0.45905543 -0.28540927 -0.16207785 -0.15106789999999998 -0.13861278 0.11033553 0.26845744 0.19691003 0.34159120000000004
-0.45905543 -0.28540927 -0.16207785 -0.15106789999999998 -0.13861278 0.11033553 0.26845744 0.19691003 0.34159120000000004 0.47335575
-0.28540927 -0.16207785 -0.15106789999999998 -0.13861278 0.11033553 0.26845744 0.19691003 0.34159120000000004 0.47335575 0.37148964
-0.16207785 -0.15106789999999998 -0.13861278 0.11033553 0.26845744 0.19691003 0.34159120000000004 0.47335575 0.37148964 0.46578258
-0.15106789999999998 -0.13861278 0.11033553 0.26845744 0.19691003 0.34159120000000004 0.47335575 0.37148964 0.46578258 0.54089476
-0.13861278 0.11033553 0.26845744 0.19691003 0.34159120000000004 0.47335575 0.37148964 0.46578258 0.54089476 0.36440987
0.11033553 0.26845744 0.19691003 0.34159120000000004 0.47335575 0.37148964 0.46578258 0.54089476 0.36440987 0.26527903
0.26845744 0.19691003 0.34159120000000004 0.47335575 0.37148964 0.46578258 0.54089476 0.36440987 0.26527903 0.33028835
0.19691003 0.34159120000000004 0.47335575 0.37148964 0.46578258 0.54089476 0.36440987 0.26527903 0.33028835 0.43267728
0.34159120000000004 0.47335575 0.37148964 0.46578258 0.54089476 0.36440987 0.26527903 0.33028835 0.43267728 0.28757898
0.47335575 0.37148964 0.46578258 0.54089476 0.36440987 0.26527903 0.33028835 0.43267728 0.28757898 0.10055547
0.37148964 0.46578258 0.54089476 0.36440987 0.26527903 0.33028835 0.43267728 0.28757898 0.10055547 0.30306621
0.46578258 0.54089476 0.36440987 0.26527903 0.33028835 0.43267728 0.28757898 0.10055547 0.30306621 0.39592048
0.54089476 0.36440987 0.26527903 0.33028835 0.43267728 0.28757898 0.10055547 0.30306621 0.39592048 0.27463172
0.36440987 0.26527903 0.33028835 0.43267728 0.28757898 0.10055547 0.30306621 0.39592048 0.27463172 0.3942039
0.26527903 0.33028835 0.43267728 0.28757898 0.10055547 0.30306621 0.39592048 0.27463172 0.3942039 0.42913948
0.33028835 0.43267728 0.28757898 0.10055547 0.30306621 0.39592048 0.27463172 0.3942039 0.42913948 0.33962524
0.43267728 0.28757898 0.10055547 0.30306621 0.39592048 0.27463172 0.3942039 0.42913948 0.33962524 0.54674481
0.28757898 0.10055547 0.30306621 0.39592048 0.27463172 0.3942039 0.42913948 0.33962524 0.54674481 0.8220322
0.10055547 0.30306621 0.39592048 0.27463172 0.3942039 0.42913948 0.33962524 0.54674481 0.8220322 0.89685132
0.30306621 0.39592048 0.27463172 0.3942039 0.42913948 0.33962524 0.54674481 0.8220322 0.89685132 0.9553666999999999
0.39592048 0.27463172 0.3942039 0.42913948 0.33962524 0.54674481 0.8220322 0.89685132 0.9553666999999999 1.0646541999999999
0.27463172 0.3942039 0.42913948 0.33962524 0.54674481 0.8220322 0.89685132 0.9553666999999999 1.0646541999999999 1.1424178999999999
0.3942039 0.42913948 0.33962524 0.54674481 0.8220322 0.89685132 0.9553666999999999 1.0646541999999999 1.1424178999999999 1.2079176
0.42913948 0.33962524 0.54674481 0.8220322 0.89685132 0.9553666999999999 1.0646541999999999 1.1424178999999999 1.2079176 1.2096563
0.33962524 0.54674481 0.8220322 0.89685132 0.9553666999999999 1.0646541999999999 1.1424178999999999 1.2079176 1.2096563 1.1701416999999998
0.54674481 0.8220322 0.89685132 0.9553666999999999 1.0646541999999999 1.1424178999999999 1.2079176 1.2096563 1.1701416999999998 1.1038603
0.8220322 0.89685132 0.9553666999999999 1.0646541999999999 1.1424178999999999 1.2079176 1.2096563 1.1701416999999998 1.1038603 0.89564261
0.89685132 0.9553666999999999 1.0646541999999999 1.1424178999999999 1.2079176 1.2096563 1.1701416999999998 1.1038603 0.89564261 0.80437217
0.9553666999999999 1.0646541999999999 1.1424178999999999 1.2079176 1.2096563 1.1701416999999998 1.1038603 0.89564261 0.80437217 0.87587161
1.0646541999999999 1.1424178999999999 1.2079176 1.2096563 1.1701416999999998 1.1038603 0.89564261 0.80437217 0.87587161 0.80603642
1.1424178999999999 1.2079176 1.2096563 1.1701416999999998 1.1038603 0.89564261 0.80437217 0.87587161 0.80603642 0.83204805
1.2079176 1.2096563 1.1701416999999998 1.1038603 0.89564261 0.80437217 0.87587161 0.80603642 0.83204805 0.94484915
1.2096563 1.1701416999999998 1.1038603 0.89564261 0.80437217 0.87587161 0.80603642 0.83204805 0.94484915 0.84750455
1.1701416999999998 1.1038603 0.89564261 0.80437217 0.87587161 0.80603642 0.83204805 0.94484915 0.84750455 0.80586783
1.1038603 0.89564261 0.80437217 0.87587161 0.80603642 0.83204805 0.94484915 0.84750455 0.80586783 0.8418723
0.89564261 0.80437217 0.87587161 0.80603642 0.83204805 0.94484915 0.84750455 0.80586783 0.8418723 0.75077919
0.80437217 0.87587161 0.80603642 0.83204805 0.94484915 0.84750455 0.80586783 0.8418723 0.75077919 0.77569694
0.87587161 0.80603642 0.83204805 0.94484915 0.84750455 0.80586783 0.8418723 0.75077919 0.77569694 0.89391653
0.80603642 0.83204805 0.94484915 0.84750455 0.80586783 0.8418723 0.75077919 0.77569694 0.89391653 0.73848308
0.83204805 0.94484915 0.84750455 0.80586783 0.8418723 0.75077919 0.77569694 0.89391653 0.73848308 0.55957557
0.94484915 0.84750455 0.80586783 0.8418723 0.75077919 0.77569694 0.89391653 0.73848308 0.55957557 0.74928821
0.84750455 0.80586783 0.8418723 0.75077919 0.77569694 0.89391653 0.73848308 0.55957557 0.74928821 0.90113023
0.80586783 0.8418723 0.75077919 0.77569694 0.89391653 0.73848308 0.55957557 0.74928821 0.90113023 0.49019473
