0.32800826 1.2102222 2.5976534 2.2107785 1.6216663999999998 -0.23932105 -1.5987116000000001 -0.60213646 -0.08660337 0.026581391
1.2102222 2.5976534 2.2107785 1.6216663999999998 -0.23932105 -1.5987116000000001 -0.60213646 -0.08660337 0.026581391 -0.30304941
2.5976534 2.2107785 1.6216663999999998 -0.23932105 -1.5987116000000001 -0.60213646 -0.08660337 0.026581391 -0.30304941 -0.37246008
2.2107785 1.6216663999999998 -0.23932105 -1.5987116000000001 -0.60213646 -0.08660337 0.026581391 -0.30304941 -0.37246008 -0.27912982
1.6216663999999998 -0.23932105 -1.5987116000000001 -0.60213646 -0.08660337 0.026581391 -0.30304941 -0.37246008 -0.27912982 -0.94947081
-0.23932105 -1.5987116000000001 -0.60213646 -0.08660337 0.026581391 -0.30304941 -0.37246008 -0.27912982 -0.94947081 -0.9640863000000002
-1.5987116000000001 -0.60213646 -0.08660337 0.026581391 -0.30304941 -0.37246008 -0.27912982 -0.94947081 -0.9640863000000002 -0.95486094
-0.60213646 -0.08660337 0.026581391 -0.30304941 -0.37246008 -0.27912982 -0.94947081 -0.9640863000000002 -0.95486094 -1.2032956
-0.08660337 0.026581391 -0.30304941 -0.37246008 -0.27912982 -0.94947081 -0.9640863000000002 -0.95486094 -1.2032956 -1.3401393
0.026581391 -0.30304941 -0.37246008 -0.27912982 -0.94947081 -0.9640863000000002 -0.95486094 -1.2032956 -1.3401393 -1.3715076000000002
-0.30304941 -0.37246008 -0.27912982 -0.94947081 -0.9640863000000002 -0.95486094 -1.2032956 -1.3401393 -1.3715076000000002 -1.1738752000000001
-0.37246008 -0.27912982 -0.94947081 -0.9640863000000002 -0.95486094 -1.2032956 -1.3401393 -1.3715076000000002 -1.1738752000000001 -1.4189553
-0.27912982 -0.94947081 -0.9640863000000002 -0.95486094 -1.2032956 -1.3401393 -1.3715076000000002 -1.1738752000000001 -1.4189553 -1.5592412
-0.94947081 -0.9640863000000002 -0.95486094 -1.2032956 -1.3401393 -1.3715076000000002 -1.1738752000000001 -1.4189553 -1.5592412 -1.3084412
-0.9640863000000002 -0.95486094 -1.2032956 -1.3401393 -1.3715076000000002 -1.1738752000000001 -1.4189553 -1.5592412 -1.3084412 -1.8123748
-0.95486094 -1.2032956 -1.3401393 -1.3715076000000002 -1.1738752000000001 -1.4189553 -1.5592412 -1.3084412 -1.8123748 -1.6991330000000002
-1.2032956 -1.3401393 -1.3715076000000002 -1.1738752000000001 -1.4189553 -1.5592412 -1.3084412 -1.8123748 -1.6991330000000002 -1.5041931
-1.3401393 -1.3715076000000002 -1.1738752000000001 -1.4189553 -1.5592412 -1.3084412 -1.8123748 -1.6991330000000002 -1.5041931 -2.0016292
-1.3715076000000002 -1.1738752000000001 -1.4189553 -1.5592412 -1.3084412 -1.8123748 -1.6991330000000002 -1.5041931 -2.0016292 -1.8574369
-1.1738752000000001 -1.4189553 -1.5592412 -1.3084412 -1.8123748 -1.6991330000000002 -1.5041931 -2.0016292 -1.8574369 -1.9543183000000002
-1.4189553 -1.5592412 -1.3084412 -1.8123748 -1.6991330000000002 -1.5041931 -2.0016292 -1.8574369 -1.9543183000000002 -1.7167091
-1.5592412 -1.3084412 -1.8123748 -1.6991330000000002 -1.5041931 -2.0016292 -1.8574369 -1.9543183000000002 -1.7167091 -2.1675454
-1.3084412 -1.8123748 -1.6991330000000002 -1.5041931 -2.0016292 -1.8574369 -1.9543183000000002 -1.7167091 -2.1675454 -1.6748811000000001
-1.8123748 -1.6991330000000002 -1.5041931 -2.0016292 -1.8574369 -1.9543183000000002 -1.7167091 -2.1675454 -1.6748811000000001 -1.8145648999999997
-1.6991330000000002 -1.5041931 -2.0016292 -1.8574369 -1.9543183000000002 -1.7167091 -2.1675454 -1.6748811000000001 -1.8145648999999997 -1.5073572
-1.5041931 -2.0016292 -1.8574369 -1.9543183000000002 -1.7167091 -2.1675454 -1.6748811000000001 -1.8145648999999997 -1.5073572 -0.99970388
-2.0016292 -1.8574369 -1.9543183000000002 -1.7167091 -2.1675454 -1.6748811000000001 -1.8145648999999997 -1.5073572 -0.99970388 -1.0499143
-1.8574369 -1.9543183000000002 -1.7167091 -2.1675454 -1.6748811000000001 -1.8145648999999997 -1.5073572 -0.99970388 -1.0499143 -0.51484779
-1.9543183000000002 -1.7167091 -2.1675454 -1.6748811000000001 -1.8145648999999997 -1.5073572 -0.99970388 -1.0499143 -0.51484779 -0.29834696
-1.7167091 -2.1675454 -1.6748811000000001 -1.8145648999999997 -1.5073572 -0.99970388 -1.0499143 -0.51484779 -0.29834696 0.12887592
-2.1675454 -1.6748811000000001 -1.8145648999999997 -1.5073572 -0.99970388 -1.0499143 -0.51484779 -0.29834696 0.12887592 0.37943089
-1.6748811000000001 -1.8145648999999997 -1.5073572 -0.99970388 -1.0499143 -0.51484779 -0.29834696 0.12887592 0.37943089 0.47460243
-1.8145648999999997 -1.5073572 -0.99970388 -1.0499143 -0.51484779 -0.29834696 0.12887592 0.37943089 0.47460243 0.60646546
-1.5073572 -0.99970388 -1.0499143 -0.51484779 -0.29834696 0.12887592 0.37943089 0.47460243 0.60646546 1.0355295
-0.99970388 -1.0499143 -0.51484779 -0.29834696 0.12887592 0.37943089 0.47460243 0.60646546 1.0355295 0.9076036
-1.0499143 -0.51484779 -0.29834696 0.12887592 0.37943089 0.47460243 0.60646546 1.0355295 0.9076036 1.0428804
-0.51484779 -0.29834696 0.12887592 0.37943089 0.47460243 0.60646546 1.0355295 0.9076036 1.0428804 0.91986476
-0.29834696 0.12887592 0.37943089 0.47460243 0.60646546 1.0355295 0.9076036 1.0428804 0.91986476 1.1408321000000001
0.12887592 0.37943089 0.47460243 0.60646546 1.0355295 0.9076036 1.0428804 0.91986476 1.1408321000000001 0.85017406
0.37943089 0.47460243 0.60646546 1.0355295 0.9076036 1.0428804 0.91986476 1.1408321000000001 0.85017406 0.78688814
0.47460243 0.60646546 1.0355295 0.9076036 1.0428804 0.91986476 1.1408321000000001 0.85017406 0.78688814 1.0158116
0.60646546 1.0355295 0.9076036 1.0428804 0.91986476 1.1408321000000001 0.85017406 0.78688814 1.0158116 0.78087507
1.0355295 0.9076036 1.0428804 0.91986476 1.1408321000000001 0.85017406 0.78688814 1.0158116 0.78087507 0.80101238
0.9076036 1.0428804 0.91986476 1.1408321000000001 0.85017406 0.78688814 1.0158116 0.78087507 0.80101238 0.65621393
1.0428804 0.91986476 1.1408321000000001 0.85017406 0.78688814 1.0158116 0.78087507 0.80101238 0.65621393 0.6961819
0.91986476 1.1408321000000001 0.85017406 0.78688814 1.0158116 0.78087507 0.80101238 0.65621393 0.6961819 0.67790021
1.1408321000000001 0.85017406 0.78688814 1.0158116 0.78087507 0.80101238 0.65621393 0.6961819 0.67790021 0.90150874
0.85017406 0.78688814 1.0158116 0.78087507 0.80101238 0.65621393 0.6961819 0.67790021 0.90150874 0.65491565
0.78688814 1.0158116 0.78087507 0.80101238 0.65621393 0.6961819 0.67790021 0.90150874 0.65491565 0.81448478
1.0158116 0.78087507 0.80101238 0.65621393 0.6961819 0.67790021 0.90150874 0.65491565 0.81448478 0.85914247
0.78087507 0.80101238 0.65621393 0.6961819 0.67790021 0.90150874 0.65491565 0.81448478 0.85914247 0.68344701
0.80101238 0.65621393 0.6961819 0.67790021 0.90150874 0.65491565 0.81448478 0.85914247 0.68344701 0.64021189
0.65621393 0.6961819 0.67790021 0.90150874 0.65491565 0.81448478 0.85914247 0.68344701 0.64021189 0.79177879
0.6961819 0.67790021 0.90150874 0.65491565 0.81448478 0.85914247 0.68344701 0.64021189 0.79177879 0.56013986
0.67790021 0.90150874 0.65491565 0.81448478 0.85914247 0.68344701 0.64021189 0.79177879 0.56013986 0.63391226
0.90150874 0.65491565 0.81448478 0.85914247 0.68344701 0.64021189 0.79177879 0.56013986 0.63391226 0.77200739
0.65491565 0.81448478 0.85914247 0.68344701 0.64021189 0.79177879 0.56013986 0.63391226 0.77200739 0.41966977
0.81448478 0.85914247 0.68344701 0.64021189 0.79177879 0.56013986 0.63391226 0.77200739 0.41966977 0.63479984
0.85914247 0.68344701 0.64021189 0.79177879 0.56013986 0.63391226 0.77200739 0.41966977 0.63479984 0.53577461
0.68344701 0.64021189 0.79177879 0.56013986 0.63391226 0.77200739 0.41966977 0.63479984 0.53577461 0.32129593
0.64021189 0.79177879 0.56013986 0.63391226 0.77200739 0.41966977 0.63479984 0.53577461 0.32129593 0.48255678
0.79177879 0.56013986 0.63391226 0.77200739 0.41966977 0.63479984 0.53577461 0.32129593 0.48255678 0.57630614
0.56013986 0.63391226 0.77200739 0.41966977 0.63479984 0.53577461 0.32129593 0.48255678 0.57630614 0.28996466
0.63391226 0.77200739 0.41966977 0.63479984 0.53577461 0.32129593 0.48255678 0.57630614 0.28996466 0.68976896
0.77200739 0.41966977 0.63479984 0.53577461 0.32129593 0.48255678 0.57630614 0.28996466 0.68976896 0.85559866
0.41966977 0.63479984 0.53577461 0.32129593 0.48255678 0.57630614 0.28996466 0.68976896 0.85559866 0.75653094
0.63479984 0.53577461 0.32129593 0.48255678 0.57630614 0.28996466 0.68976896 0.85559866 0.75653094 0.86012922
0.53577461 0.32129593 0.48255678 0.57630614 0.28996466 0.68976896 0.85559866 0.75653094 0.86012922 0.72387774
0.32129593 0.48255678 0.57630614 0.28996466 0.68976896 0.85559866 0.75653094 0.86012922 0.72387774 0.44588590000000006
0.48255678 0.57630614 0.28996466 0.68976896 0.85559866 0.75653094 0.86012922 0.72387774 0.44588590000000006 0.52091469
0.57630614 0.28996466 0.68976896 0.85559866 0.75653094 0.86012922 0.72387774 0.44588590000000006 0.52091469 0.59710275
0.28996466 0.68976896 0.85559866 0.75653094 0.86012922 0.72387774 0.44588590000000006 0.52091469 0.59710275 0.0041582105
0.68976896 0.85559866 0.75653094 0.86012922 0.72387774 0.44588590000000006 0.52091469 0.59710275 0.0041582105 0.18873901
0.85559866 0.75653094 0.86012922 0.72387774 0.44588590000000006 0.52091469 0.59710275 0.0041582105 0.18873901 0.35839279
0.75653094 0.86012922 0.72387774 0.44588590000000006 0.52091469 0.59710275 0.0041582105 0.18873901 0.35839279 -0.16948401
0.86012922 0.72387774 0.44588590000000006 0.52091469 0.59710275 0.0041582105 0.18873901 0.35839279 -0.16948401 0.31336029
0.72387774 0.44588590000000006 0.52091469 0.59710275 0.0041582105 0.18873901 0.35839279 -0.16948401 0.31336029 0.12599111
0.44588590000000006 0.52091469 0.59710275 0.0041582105 0.18873901 0.35839279 -0.16948401 0.31336029 0.12599111 -0.046115194000000005
0.52091469 0.59710275 0.0041582105 0.18873901 0.35839279 -0.16948401 0.31336029 0.12599111 -0.046115194000000005 0.09980147199999999
0.59710275 0.0041582105 0.18873901 0.35839279 -0.16948401 0.31336029 0.12599111 -0.046115194000000005 0.09980147199999999 -0.05288849
0.0041582105 0.18873901 0.35839279 -0.16948401 0.31336029 0.12599111 -0.046115194000000005 0.09980147199999999 -0.05288849 0.11905553
0.18873901 0.35839279 -0.16948401 0.31336029 0.12599111 -0.046115194000000005 0.09980147199999999 -0.05288849 0.11905553 0.061988985999999996
0.35839279 -0.16948401 0.31336029 0.12599111 -0.046115194000000005 0.09980147199999999 -0.05288849 0.11905553 0.061988985999999996 -0.060122169
-0.16948401 0.31336029 0.12599111 -0.046115194000000005 0.09980147199999999 -0.05288849 0.11905553 0.061988985999999996 -0.060122169 -0.030952939
0.31336029 0.12599111 -0.046115194000000005 0.09980147199999999 -0.05288849 0.11905553 0.061988985999999996 -0.060122169 -0.030952939 0.001111159
0.12599111 -0.046115194000000005 0.09980147199999999 -0.05288849 0.11905553 0.061988985999999996 -0.060122169 -0.030952939 0.001111159 0.22771811
-0.046115194000000005 0.09980147199999999 -0.05288849 0.11905553 0.061988985999999996 -0.060122169 -0.030952939 0.001111159 0.22771811 0.23970956
