1.2106339 2.0033131999999996 1.7456025000000002 1.475794 0.19887114 0.10653092 1.0173006 0.81742798 0.99833497 0.82159462
2.0033131999999996 1.7456025000000002 1.475794 0.19887114 0.10653092 1.0173006 0.81742798 0.99833497 0.82159462 -0.29900089
1.7456025000000002 1.475794 0.19887114 0.10653092 1.0173006 0.81742798 0.99833497 0.82159462 -0.29900089 -0.67685417
1.475794 0.19887114 0.10653092 1.0173006 0.81742798 0.99833497 0.82159462 -0.29900089 -0.67685417 -0.68235251
0.19887114 0.10653092 1.0173006 0.81742798 0.99833497 0.82159462 -0.29900089 -0.67685417 -0.68235251 -0.96281272
0.10653092 1.0173006 0.81742798 0.99833497 0.82159462 -0.29900089 -0.67685417 -0.68235251 -0.96281272 -0.97213158
1.0173006 0.81742798 0.99833497 0.82159462 -0.29900089 -0.67685417 -0.68235251 -0.96281272 -0.97213158 -1.0023209000000002
0.81742798 0.99833497 0.82159462 -0.29900089 -0.67685417 -0.68235251 -0.96281272 -0.97213158 -1.0023209000000002 -1.0992891000000002
0.99833497 0.82159462 -0.29900089 -0.67685417 -0.68235251 -0.96281272 -0.97213158 -1.0023209000000002 -1.0992891000000002 -1.0526758
0.82159462 -0.29900089 -0.67685417 -0.68235251 -0.96281272 -0.97213158 -1.0023209000000002 -1.0992891000000002 -1.0526758 -1.2604252
-0.29900089 -0.67685417 -0.68235251 -0.96281272 -0.97213158 -1.0023209000000002 -1.0992891000000002 -1.0526758 -1.2604252 -1.3282097
-0.67685417 -0.68235251 -0.96281272 -0.97213158 -1.0023209000000002 -1.0992891000000002 -1.0526758 -1.2604252 -1.3282097 -1.3951999
-0.68235251 -0.96281272 -0.97213158 -1.0023209000000002 -1.0992891000000002 -1.0526758 -1.2604252 -1.3282097 -1.3951999 -1.5480231000000002
-0.96281272 -0.97213158 -1.0023209000000002 -1.0992891000000002 -1.0526758 -1.2604252 -1.3282097 -1.3951999 -1.5480231000000002 -1.7076262999999998
-0.97213158 -1.0023209000000002 -1.0992891000000002 -1.0526758 -1.2604252 -1.3282097 -1.3951999 -1.5480231000000002 -1.7076262999999998 -1.9472582999999999
-1.0023209000000002 -1.0992891000000002 -1.0526758 -1.2604252 -1.3282097 -1.3951999 -1.5480231000000002 -1.7076262999999998 -1.9472582999999999 -2.0772737
-1.0992891000000002 -1.0526758 -1.2604252 -1.3282097 -1.3951999 -1.5480231000000002 -1.7076262999999998 -1.9472582999999999 -2.0772737 -2.2287107
-1.0526758 -1.2604252 -1.3282097 -1.3951999 -1.5480231000000002 -1.7076262999999998 -1.9472582999999999 -2.0772737 -2.2287107 -2.3156682
-1.2604252 -1.3282097 -1.3951999 -1.5480231000000002 -1.7076262999999998 -1.9472582999999999 -2.0772737 -2.2287107 -2.3156682 -2.4765243
-1.3282097 -1.3951999 -1.5480231000000002 -1.7076262999999998 -1.9472582999999999 -2.0772737 -2.2287107 -2.3156682 -2.4765243 -2.549976
-1.3951999 -1.5480231000000002 -1.7076262999999998 -1.9472582999999999 -2.0772737 -2.2287107 -2.3156682 -2.4765243 -2.549976 -2.3832854
-1.5480231000000002 -1.7076262999999998 -1.9472582999999999 -2.0772737 -2.2287107 -2.3156682 -2.4765243 -2.549976 -2.3832854 -2.190772
-1.7076262999999998 -1.9472582999999999 -2.0772737 -2.2287107 -2.3156682 -2.4765243 -2.549976 -2.3832854 -2.190772 -2.0227201
-1.9472582999999999 -2.0772737 -2.2287107 -2.3156682 -2.4765243 -2.549976 -2.3832854 -2.190772 -2.0227201 -1.5502245000000001
-2.0772737 -2.2287107 -2.3156682 -2.4765243 -2.549976 -2.3832854 -2.190772 -2.0227201 -1.5502245000000001 -1.1347029
-2.2287107 -2.3156682 -2.4765243 -2.549976 -2.3832854 -2.190772 -2.0227201 -1.5502245000000001 -1.1347029 -0.71965149
-2.3156682 -2.4765243 -2.549976 -2.3832854 -2.190772 -2.0227201 -1.5502245000000001 -1.1347029 -0.71965149 -0.22867963
-2.4765243 -2.549976 -2.3832854 -2.190772 -2.0227201 -1.5502245000000001 -1.1347029 -0.71965149 -0.22867963 0.10805214
-2.549976 -2.3832854 -2.190772 -2.0227201 -1.5502245000000001 -1.1347029 -0.71965149 -0.22867963 0.10805214 0.3221329
-2.3832854 -2.190772 -2.0227201 -1.5502245000000001 -1.1347029 -0.71965149 -0.22867963 0.10805214 0.3221329 0.49457595
-2.190772 -2.0227201 -1.5502245000000001 -1.1347029 -0.71965149 -0.22867963 0.10805214 0.3221329 0.49457595 0.66650334
-2.0227201 -1.5502245000000001 -1.1347029 -0.71965149 -0.22867963 0.10805214 0.3221329 0.49457595 0.66650334 0.66158288
-1.5502245000000001 -1.1347029 -0.71965149 -0.22867963 0.10805214 0.3221329 0.49457595 0.66650334 0.66158288 0.63379278
-1.1347029 -0.71965149 -0.22867963 0.10805214 0.3221329 0.49457595 0.66650334 0.66158288 0.63379278 0.55831471
-0.71965149 -0.22867963 0.10805214 0.3221329 0.49457595 0.66650334 0.66158288 0.63379278 0.55831471 0.53485272
-0.22867963 0.10805214 0.3221329 0.49457595 0.66650334 0.66158288 0.63379278 0.55831471 0.53485272 0.48213908
0.10805214 0.3221329 0.49457595 0.66650334 0.66158288 0.63379278 0.55831471 0.53485272 0.48213908 0.38860263
0.3221329 0.49457595 0.66650334 0.66158288 0.63379278 0.55831471 0.53485272 0.48213908 0.38860263 0.39941234
0.49457595 0.66650334 0.66158288 0.63379278 0.55831471 0.53485272 0.48213908 0.38860263 0.39941234 0.39393721
0.66650334 0.66158288 0.63379278 0.55831471 0.53485272 0.48213908 0.38860263 0.39941234 0.39393721 0.39690711
0.66158288 0.63379278 0.55831471 0.53485272 0.48213908 0.38860263 0.39941234 0.39393721 0.39690711 0.42166085
0.63379278 0.55831471 0.53485272 0.48213908 0.38860263 0.39941234 0.39393721 0.39690711 0.42166085 0.38075173
0.55831471 0.53485272 0.48213908 0.38860263 0.39941234 0.39393721 0.39690711 0.42166085 0.38075173 0.46693248
0.53485272 0.48213908 0.38860263 0.39941234 0.39393721 0.39690711 0.42166085 0.38075173 0.46693248 0.48418504
0.48213908 0.38860263 0.39941234 0.39393721 0.39690711 0.42166085 0.38075173 0.46693248 0.48418504 0.46930643
0.38860263 0.39941234 0.39393721 0.39690711 0.42166085 0.38075173 0.46693248 0.48418504 0.46930643 0.55859949
0.39941234 0.39393721 0.39690711 0.42166085 0.38075173 0.46693248 0.48418504 0.46930643 0.55859949 0.45822607
0.39393721 0.39690711 0.42166085 0.38075173 0.46693248 0.48418504 0.46930643 0.55859949 0.45822607 0.47829954
0.39690711 0.42166085 0.38075173 0.46693248 0.48418504 0.46930643 0.55859949 0.45822607 0.47829954 0.47696808
0.42166085 0.38075173 0.46693248 0.48418504 0.46930643 0.55859949 0.45822607 0.47829954 0.47696808 0.49255067
0.38075173 0.46693248 0.48418504 0.46930643 0.55859949 0.45822607 0.47829954 0.47696808 0.49255067 0.42788022
0.46693248 0.48418504 0.46930643 0.55859949 0.45822607 0.47829954 0.47696808 0.49255067 0.42788022 0.49164863
0.48418504 0.46930643 0.55859949 0.45822607 0.47829954 0.47696808 0.49255067 0.42788022 0.49164863 0.41993751
0.46930643 0.55859949 0.45822607 0.47829954 0.47696808 0.49255067 0.42788022 0.49164863 0.41993751 0.38063547
0.55859949 0.45822607 0.47829954 0.47696808 0.49255067 0.42788022 0.49164863 0.41993751 0.38063547 0.44767977
0.45822607 0.47829954 0.47696808 0.49255067 0.42788022 0.49164863 0.41993751 0.38063547 0.44767977 0.36612588
0.47829954 0.47696808 0.49255067 0.42788022 0.49164863 0.41993751 0.38063547 0.44767977 0.36612588 0.32853491
0.47696808 0.49255067 0.42788022 0.49164863 0.41993751 0.38063547 0.44767977 0.36612588 0.32853491 0.31534058
0.49255067 0.42788022 0.49164863 0.41993751 0.38063547 0.44767977 0.36612588 0.32853491 0.31534058 0.44443883
0.42788022 0.49164863 0.41993751 0.38063547 0.44767977 0.36612588 0.32853491 0.31534058 0.44443883 0.38677979999999995
0.49164863 0.41993751 0.38063547 0.44767977 0.36612588 0.32853491 0.31534058 0.44443883 0.38677979999999995 0.35675378
0.41993751 0.38063547 0.44767977 0.36612588 0.32853491 0.31534058 0.44443883 0.38677979999999995 0.35675378 0.44368163
0.38063547 0.44767977 0.36612588 0.32853491 0.31534058 0.44443883 0.38677979999999995 0.35675378 0.44368163 0.42994058
0.44767977 0.36612588 0.32853491 0.31534058 0.44443883 0.38677979999999995 0.35675378 0.44368163 0.42994058 0.47399508
0.36612588 0.32853491 0.31534058 0.44443883 0.38677979999999995 0.35675378 0.44368163 0.42994058 0.47399508 0.6371973000000001
0.32853491 0.31534058 0.44443883 0.38677979999999995 0.35675378 0.44368163 0.42994058 0.47399508 0.6371973000000001 0.78668779
0.31534058 0.44443883 0.38677979999999995 0.35675378 0.44368163 0.42994058 0.47399508 0.6371973000000001 0.78668779 1.0491275
0.44443883 0.38677979999999995 0.35675378 0.44368163 0.42994058 0.47399508 0.6371973000000001 0.78668779 1.0491275 0.87613024
0.38677979999999995 0.35675378 0.44368163 0.42994058 0.47399508 0.6371973000000001 0.78668779 1.0491275 0.87613024 0.63468906
0.35675378 0.44368163 0.42994058 0.47399508 0.6371973000000001 0.78668779 1.0491275 0.87613024 0.63468906 0.64561285
0.44368163 0.42994058 0.47399508 0.6371973000000001 0.78668779 1.0491275 0.87613024 0.63468906 0.64561285 0.46473292
0.42994058 0.47399508 0.6371973000000001 0.78668779 1.0491275 0.87613024 0.63468906 0.64561285 0.46473292 0.46333617
0.47399508 0.6371973000000001 0.78668779 1.0491275 0.87613024 0.63468906 0.64561285 0.46473292 0.46333617 0.42437091
0.6371973000000001 0.78668779 1.0491275 0.87613024 0.63468906 0.64561285 0.46473292 0.46333617 0.42437091 0.26218379
0.78668779 1.0491275 0.87613024 0.63468906 0.64561285 0.46473292 0.46333617 0.42437091 0.26218379 0.2253518
1.0491275 0.87613024 0.63468906 0.64561285 0.46473292 0.46333617 0.42437091 0.26218379 0.2253518 0.34204574
0.87613024 0.63468906 0.64561285 0.46473292 0.46333617 0.42437091 0.26218379 0.2253518 0.34204574 0.36436619
0.63468906 0.64561285 0.46473292 0.46333617 0.42437091 0.26218379 0.2253518 0.34204574 0.36436619 0.25836137
0.64561285 0.46473292 0.46333617 0.42437091 0.26218379 0.2253518 0.34204574 0.36436619 0.25836137 0.21793416
0.46473292 0.46333617 0.42437091 0.26218379 0.2253518 0.34204574 0.36436619 0.25836137 0.21793416 0.26910008
0.46333617 0.42437091 0.26218379 0.2253518 0.34204574 0.36436619 0.25836137 0.21793416 0.26910008 0.33819337
0.42437091 0.26218379 0.2253518 0.34204574 0.36436619 0.25836137 0.21793416 0.26910008 0.33819337 0.29435122
0.26218379 0.2253518 0.34204574 0.36436619 0.25836137 0.21793416 0.26910008 0.33819337 0.29435122 0.2270549
0.2253518 0.34204574 0.36436619 0.25836137 0.21793416 0.26910008 0.33819337 0.29435122 0.2270549 0.40831801
0.34204574 0.36436619 0.25836137 0.21793416 0.26910008 0.33819337 0.29435122 0.2270549 0.40831801 0.35725521
0.36436619 0.25836137 0.21793416 0.26910008 0.33819337 0.29435122 0.2270549 0.40831801 0.35725521 0.61719789
0.25836137 0.21793416 0.26910008 0.33819337 0.29435122 0.2270549 0.40831801 0.35725521 0.61719789 0.81170786
