0.59313603 0.80250911 0.067021556 0.052160732 -0.12167926 -0.26202288 -0.33994214 -1.0062404 -0.59898697 -0.52970494
0.80250911 0.067021556 0.052160732 -0.12167926 -0.26202288 -0.33994214 -1.0062404 -0.59898697 -0.52970494 -1.1856121000000002
0.067021556 0.052160732 -0.12167926 -0.26202288 -0.33994214 -1.0062404 -0.59898697 -0.52970494 -1.1856121000000002 -1.0053181999999998
0.052160732 -0.12167926 -0.26202288 -0.33994214 -1.0062404 -0.59898697 -0.52970494 -1.1856121000000002 -1.0053181999999998 -0.89876927
-0.12167926 -0.26202288 -0.33994214 -1.0062404 -0.59898697 -0.52970494 -1.1856121000000002 -1.0053181999999998 -0.89876927 -1.0917618
-0.26202288 -0.33994214 -1.0062404 -0.59898697 -0.52970494 -1.1856121000000002 -1.0053181999999998 -0.89876927 -1.0917618 -1.4072013
-0.33994214 -1.0062404 -0.59898697 -0.52970494 -1.1856121000000002 -1.0053181999999998 -0.89876927 -1.0917618 -1.4072013 -1.4293048000000002
-1.0062404 -0.59898697 -0.52970494 -1.1856121000000002 -1.0053181999999998 -0.89876927 -1.0917618 -1.4072013 -1.4293048000000002 -1.6250421999999998
-0.59898697 -0.52970494 -1.1856121000000002 -1.0053181999999998 -0.89876927 -1.0917618 -1.4072013 -1.4293048000000002 -1.6250421999999998 -1.5733116000000003
-0.52970494 -1.1856121000000002 -1.0053181999999998 -0.89876927 -1.0917618 -1.4072013 -1.4293048000000002 -1.6250421999999998 -1.5733116000000003 -1.9192261999999998
-1.1856121000000002 -1.0053181999999998 -0.89876927 -1.0917618 -1.4072013 -1.4293048000000002 -1.6250421999999998 -1.5733116000000003 -1.9192261999999998 -1.74836
-1.0053181999999998 -0.89876927 -1.0917618 -1.4072013 -1.4293048000000002 -1.6250421999999998 -1.5733116000000003 -1.9192261999999998 -1.74836 -1.805791
-0.89876927 -1.0917618 -1.4072013 -1.4293048000000002 -1.6250421999999998 -1.5733116000000003 -1.9192261999999998 -1.74836 -1.805791 -1.8971609
-1.0917618 -1.4072013 -1.4293048000000002 -1.6250421999999998 -1.5733116000000003 -1.9192261999999998 -1.74836 -1.805791 -1.8971609 -1.7293433999999996
-1.4072013 -1.4293048000000002 -1.6250421999999998 -1.5733116000000003 -1.9192261999999998 -1.74836 -1.805791 -1.8971609 -1.7293433999999996 -2.2691787999999997
-1.4293048000000002 -1.6250421999999998 -1.5733116000000003 -1.9192261999999998 -1.74836 -1.805791 -1.8971609 -1.7293433999999996 -2.2691787999999997 -1.7849163000000001
-1.6250421999999998 -1.5733116000000003 -1.9192261999999998 -1.74836 -1.805791 -1.8971609 -1.7293433999999996 -2.2691787999999997 -1.7849163000000001 -1.7460258999999998
-1.5733116000000003 -1.9192261999999998 -1.74836 -1.805791 -1.8971609 -1.7293433999999996 -2.2691787999999997 -1.7849163000000001 -1.7460258999999998 -1.7475481
-1.9192261999999998 -1.74836 -1.805791 -1.8971609 -1.7293433999999996 -2.2691787999999997 -1.7849163000000001 -1.7460258999999998 -1.7475481 -0.72998752
-1.74836 -1.805791 -1.8971609 -1.7293433999999996 -2.2691787999999997 -1.7849163000000001 -1.7460258999999998 -1.7475481 -0.72998752 -0.84418028
-1.805791 -1.8971609 -1.7293433999999996 -2.2691787999999997 -1.7849163000000001 -1.7460258999999998 -1.7475481 -0.72998752 -0.84418028 -0.42672489
-1.8971609 -1.7293433999999996 -2.2691787999999997 -1.7849163000000001 -1.7460258999999998 -1.7475481 -0.72998752 -0.84418028 -0.42672489 -0.26633783
-1.7293433999999996 -2.2691787999999997 -1.7849163000000001 -1.7460258999999998 -1.7475481 -0.72998752 -0.84418028 -0.42672489 -0.26633783 -0.079507284
-2.2691787999999997 -1.7849163000000001 -1.7460258999999998 -1.7475481 -0.72998752 -0.84418028 -0.42672489 -0.26633783 -0.079507284 1.1773343
-1.7849163000000001 -1.7460258999999998 -1.7475481 -0.72998752 -0.84418028 -0.42672489 -0.26633783 -0.079507284 1.1773343 0.73347594
-1.7460258999999998 -1.7475481 -0.72998752 -0.84418028 -0.42672489 -0.26633783 -0.079507284 1.1773343 0.73347594 0.65012589
-1.7475481 -0.72998752 -0.84418028 -0.42672489 -0.26633783 -0.079507284 1.1773343 0.73347594 0.65012589 1.1787742
-0.72998752 -0.84418028 -0.42672489 -0.26633783 -0.079507284 1.1773343 0.73347594 0.65012589 1.1787742 1.079006
-0.84418028 -0.42672489 -0.26633783 -0.079507284 1.1773343 0.73347594 0.65012589 1.1787742 1.079006 0.94114932
-0.42672489 -0.26633783 -0.079507284 1.1773343 0.73347594 0.65012589 1.1787742 1.079006 0.94114932 1.0895865
-0.26633783 -0.079507284 1.1773343 0.73347594 0.65012589 1.1787742 1.079006 0.94114932 1.0895865 1.1170871999999998
-0.079507284 1.1773343 0.73347594 0.65012589 1.1787742 1.079006 0.94114932 1.0895865 1.1170871999999998 0.81479883
1.1773343 0.73347594 0.65012589 1.1787742 1.079006 0.94114932 1.0895865 1.1170871999999998 0.81479883 1.3428101000000001
0.73347594 0.65012589 1.1787742 1.079006 0.94114932 1.0895865 1.1170871999999998 0.81479883 1.3428101000000001 0.60501942
0.65012589 1.1787742 1.079006 0.94114932 1.0895865 1.1170871999999998 0.81479883 1.3428101000000001 0.60501942 0.87274247
1.1787742 1.079006 0.94114932 1.0895865 1.1170871999999998 0.81479883 1.3428101000000001 0.60501942 0.87274247 0.5123191
1.079006 0.94114932 1.0895865 1.1170871999999998 0.81479883 1.3428101000000001 0.60501942 0.87274247 0.5123191 0.72490422
0.94114932 1.0895865 1.1170871999999998 0.81479883 1.3428101000000001 0.60501942 0.87274247 0.5123191 0.72490422 1.0884690000000001
1.0895865 1.1170871999999998 0.81479883 1.3428101000000001 0.60501942 0.87274247 0.5123191 0.72490422 1.0884690000000001 0.77410833
1.1170871999999998 0.81479883 1.3428101000000001 0.60501942 0.87274247 0.5123191 0.72490422 1.0884690000000001 0.77410833 0.70870558
0.81479883 1.3428101000000001 0.60501942 0.87274247 0.5123191 0.72490422 1.0884690000000001 0.77410833 0.70870558 0.79153338
1.3428101000000001 0.60501942 0.87274247 0.5123191 0.72490422 1.0884690000000001 0.77410833 0.70870558 0.79153338 0.70991321
0.60501942 0.87274247 0.5123191 0.72490422 1.0884690000000001 0.77410833 0.70870558 0.79153338 0.70991321 0.48996558
0.87274247 0.5123191 0.72490422 1.0884690000000001 0.77410833 0.70870558 0.79153338 0.70991321 0.48996558 0.78993928
0.5123191 0.72490422 1.0884690000000001 0.77410833 0.70870558 0.79153338 0.70991321 0.48996558 0.78993928 0.50126724
0.72490422 1.0884690000000001 0.77410833 0.70870558 0.79153338 0.70991321 0.48996558 0.78993928 0.50126724 0.64551575
1.0884690000000001 0.77410833 0.70870558 0.79153338 0.70991321 0.48996558 0.78993928 0.50126724 0.64551575 0.76640171
0.77410833 0.70870558 0.79153338 0.70991321 0.48996558 0.78993928 0.50126724 0.64551575 0.76640171 0.15491479
0.70870558 0.79153338 0.70991321 0.48996558 0.78993928 0.50126724 0.64551575 0.76640171 0.15491479 0.41564746
0.79153338 0.70991321 0.48996558 0.78993928 0.50126724 0.64551575 0.76640171 0.15491479 0.41564746 0.31423840000000003
0.70991321 0.48996558 0.78993928 0.50126724 0.64551575 0.76640171 0.15491479 0.41564746 0.31423840000000003 0.42052174
0.48996558 0.78993928 0.50126724 0.64551575 0.76640171 0.15491479 0.41564746 0.31423840000000003 0.42052174 0.32342367
0.78993928 0.50126724 0.64551575 0.76640171 0.15491479 0.41564746 0.31423840000000003 0.42052174 0.32342367 0.27822343
0.50126724 0.64551575 0.76640171 0.15491479 0.41564746 0.31423840000000003 0.42052174 0.32342367 0.27822343 -0.090264024
0.64551575 0.76640171 0.15491479 0.41564746 0.31423840000000003 0.42052174 0.32342367 0.27822343 -0.090264024 0.082859583
0.76640171 0.15491479 0.41564746 0.31423840000000003 0.42052174 0.32342367 0.27822343 -0.090264024 0.082859583 0.53525853
0.15491479 0.41564746 0.31423840000000003 0.42052174 0.32342367 0.27822343 -0.090264024 0.082859583 0.53525853 0.24757589
0.41564746 0.31423840000000003 0.42052174 0.32342367 0.27822343 -0.090264024 0.082859583 0.53525853 0.24757589 0.56139889
0.31423840000000003 0.42052174 0.32342367 0.27822343 -0.090264024 0.082859583 0.53525853 0.24757589 0.56139889 0.30952558
0.42052174 0.32342367 0.27822343 -0.090264024 0.082859583 0.53525853 0.24757589 0.56139889 0.30952558 0.27271595
0.32342367 0.27822343 -0.090264024 0.082859583 0.53525853 0.24757589 0.56139889 0.30952558 0.27271595 0.21810709
0.27822343 -0.090264024 0.082859583 0.53525853 0.24757589 0.56139889 0.30952558 0.27271595 0.21810709 0.27393487
-0.090264024 0.082859583 0.53525853 0.24757589 0.56139889 0.30952558 0.27271595 0.21810709 0.27393487 -0.017904864
0.082859583 0.53525853 0.24757589 0.56139889 0.30952558 0.27271595 0.21810709 0.27393487 -0.017904864 -0.13892085
0.53525853 0.24757589 0.56139889 0.30952558 0.27271595 0.21810709 0.27393487 -0.017904864 -0.13892085 -0.21014382
0.24757589 0.56139889 0.30952558 0.27271595 0.21810709 0.27393487 -0.017904864 -0.13892085 -0.21014382 -0.11375070000000001
0.56139889 0.30952558 0.27271595 0.21810709 0.27393487 -0.017904864 -0.13892085 -0.21014382 -0.11375070000000001 0.093109051
0.30952558 0.27271595 0.21810709 0.27393487 -0.017904864 -0.13892085 -0.21014382 -0.11375070000000001 0.093109051 -0.42413019
0.27271595 0.21810709 0.27393487 -0.017904864 -0.13892085 -0.21014382 -0.11375070000000001 0.093109051 -0.42413019 -0.18865992
0.21810709 0.27393487 -0.017904864 -0.13892085 -0.21014382 -0.11375070000000001 0.093109051 -0.42413019 -0.18865992 0.04830808599999999
0.27393487 -0.017904864 -0.13892085 -0.21014382 -0.11375070000000001 0.093109051 -0.42413019 -0.18865992 0.04830808599999999 -0.66521083
-0.017904864 -0.13892085 -0.21014382 -0.11375070000000001 0.093109051 -0.42413019 -0.18865992 0.04830808599999999 -0.66521083 -0.30484309
-0.13892085 -0.21014382 -0.11375070000000001 0.093109051 -0.42413019 -0.18865992 0.04830808599999999 -0.66521083 -0.30484309 0.0048759833
-0.21014382 -0.11375070000000001 0.093109051 -0.42413019 -0.18865992 0.04830808599999999 -0.66521083 -0.30484309 0.0048759833 -0.41411973
-0.11375070000000001 0.093109051 -0.42413019 -0.18865992 0.04830808599999999 -0.66521083 -0.30484309 0.0048759833 -0.41411973 -0.19676712
0.093109051 -0.42413019 -0.18865992 0.04830808599999999 -0.66521083 -0.30484309 0.0048759833 -0.41411973 -0.19676712 -0.17918337
-0.42413019 -0.18865992 0.04830808599999999 -0.66521083 -0.30484309 0.0048759833 -0.41411973 -0.19676712 -0.17918337 -0.51376342
-0.18865992 0.04830808599999999 -0.66521083 -0.30484309 0.0048759833 -0.41411973 -0.19676712 -0.17918337 -0.51376342 -0.41397942
0.04830808599999999 -0.66521083 -0.30484309 0.0048759833 -0.41411973 -0.19676712 -0.17918337 -0.51376342 -0.41397942 0.10872402
-0.66521083 -0.30484309 0.0048759833 -0.41411973 -0.19676712 -0.17918337 -0.51376342 -0.41397942 0.10872402 -0.023326113
-0.30484309 0.0048759833 -0.41411973 -0.19676712 -0.17918337 -0.51376342 -0.41397942 0.10872402 -0.023326113 1.2233758
0.0048759833 -0.41411973 -0.19676712 -0.17918337 -0.51376342 -0.41397942 0.10872402 -0.023326113 1.2233758 3.0473088
-0.41411973 -0.19676712 -0.17918337 -0.51376342 -0.41397942 0.10872402 -0.023326113 1.2233758 3.0473088 2.4025939999999997
-0.19676712 -0.17918337 -0.51376342 -0.41397942 0.10872402 -0.023326113 1.2233758 3.0473088 2.4025939999999997 2.4357556000000002
-0.17918337 -0.51376342 -0.41397942 0.10872402 -0.023326113 1.2233758 3.0473088 2.4025939999999997 2.4357556000000002 1.2766935
-0.51376342 -0.41397942 0.10872402 -0.023326113 1.2233758 3.0473088 2.4025939999999997 2.4357556000000002 1.2766935 -0.7978437
-0.41397942 0.10872402 -0.023326113 1.2233758 3.0473088 2.4025939999999997 2.4357556000000002 1.2766935 -0.7978437 0.09312667300000001
