0.91899571 1.0688252 0.98272169 1.5201531000000001 2.3103543999999996 2.3079504 1.7544429 1.5135657 1.3181049999999999 0.67161156
1.0688252 0.98272169 1.5201531000000001 2.3103543999999996 2.3079504 1.7544429 1.5135657 1.3181049999999999 0.67161156 0.062202090999999994
0.98272169 1.5201531000000001 2.3103543999999996 2.3079504 1.7544429 1.5135657 1.3181049999999999 0.67161156 0.062202090999999994 -0.055991082000000005
1.5201531000000001 2.3103543999999996 2.3079504 1.7544429 1.5135657 1.3181049999999999 0.67161156 0.062202090999999994 -0.055991082000000005 0.058747605
2.3103543999999996 2.3079504 1.7544429 1.5135657 1.3181049999999999 0.67161156 0.062202090999999994 -0.055991082000000005 0.058747605 0.030198911000000002
2.3079504 1.7544429 1.5135657 1.3181049999999999 0.67161156 0.062202090999999994 -0.055991082000000005 0.058747605 0.030198911000000002 -0.20713671
1.7544429 1.5135657 1.3181049999999999 0.67161156 0.062202090999999994 -0.055991082000000005 0.058747605 0.030198911000000002 -0.20713671 -0.31796969
1.5135657 1.3181049999999999 0.67161156 0.062202090999999994 -0.055991082000000005 0.058747605 0.030198911000000002 -0.20713671 -0.31796969 -0.18678489
1.3181049999999999 0.67161156 0.062202090999999994 -0.055991082000000005 0.058747605 0.030198911000000002 -0.20713671 -0.31796969 -0.18678489 -0.22070618
0.67161156 0.062202090999999994 -0.055991082000000005 0.058747605 0.030198911000000002 -0.20713671 -0.31796969 -0.18678489 -0.22070618 -0.30589505
0.062202090999999994 -0.055991082000000005 0.058747605 0.030198911000000002 -0.20713671 -0.31796969 -0.18678489 -0.22070618 -0.30589505 -0.11304074
-0.055991082000000005 0.058747605 0.030198911000000002 -0.20713671 -0.31796969 -0.18678489 -0.22070618 -0.30589505 -0.11304074 -0.21837220000000002
0.058747605 0.030198911000000002 -0.20713671 -0.31796969 -0.18678489 -0.22070618 -0.30589505 -0.11304074 -0.21837220000000002 -0.7412612
0.030198911000000002 -0.20713671 -0.31796969 -0.18678489 -0.22070618 -0.30589505 -0.11304074 -0.21837220000000002 -0.7412612 -0.81072743
-0.20713671 -0.31796969 -0.18678489 -0.22070618 -0.30589505 -0.11304074 -0.21837220000000002 -0.7412612 -0.81072743 -0.56870234
-0.31796969 -0.18678489 -0.22070618 -0.30589505 -0.11304074 -0.21837220000000002 -0.7412612 -0.81072743 -0.56870234 -0.76214063
-0.18678489 -0.22070618 -0.30589505 -0.11304074 -0.21837220000000002 -0.7412612 -0.81072743 -0.56870234 -0.76214063 -1.0347687
-0.22070618 -0.30589505 -0.11304074 -0.21837220000000002 -0.7412612 -0.81072743 -0.56870234 -0.76214063 -1.0347687 -0.99950674
-0.30589505 -0.11304074 -0.21837220000000002 -0.7412612 -0.81072743 -0.56870234 -0.76214063 -1.0347687 -0.99950674 -0.98669998
-0.11304074 -0.21837220000000002 -0.7412612 -0.81072743 -0.56870234 -0.76214063 -1.0347687 -0.99950674 -0.98669998 -1.0670712
-0.21837220000000002 -0.7412612 -0.81072743 -0.56870234 -0.76214063 -1.0347687 -0.99950674 -0.98669998 -1.0670712 -1.1346649
-0.7412612 -0.81072743 -0.56870234 -0.76214063 -1.0347687 -0.99950674 -0.98669998 -1.0670712 -1.1346649 -1.2243462999999999
-0.81072743 -0.56870234 -0.76214063 -1.0347687 -0.99950674 -0.98669998 -1.0670712 -1.1346649 -1.2243462999999999 -1.2682870000000002
-0.56870234 -0.76214063 -1.0347687 -0.99950674 -0.98669998 -1.0670712 -1.1346649 -1.2243462999999999 -1.2682870000000002 -1.335924
-0.76214063 -1.0347687 -0.99950674 -0.98669998 -1.0670712 -1.1346649 -1.2243462999999999 -1.2682870000000002 -1.335924 -1.4715307
-1.0347687 -0.99950674 -0.98669998 -1.0670712 -1.1346649 -1.2243462999999999 -1.2682870000000002 -1.335924 -1.4715307 -1.4948522
-0.99950674 -0.98669998 -1.0670712 -1.1346649 -1.2243462999999999 -1.2682870000000002 -1.335924 -1.4715307 -1.4948522 -1.5713908
-0.98669998 -1.0670712 -1.1346649 -1.2243462999999999 -1.2682870000000002 -1.335924 -1.4715307 -1.4948522 -1.5713908 -1.8626604
-1.0670712 -1.1346649 -1.2243462999999999 -1.2682870000000002 -1.335924 -1.4715307 -1.4948522 -1.5713908 -1.8626604 -1.9504453000000002
-1.1346649 -1.2243462999999999 -1.2682870000000002 -1.335924 -1.4715307 -1.4948522 -1.5713908 -1.8626604 -1.9504453000000002 -1.7486006
-1.2243462999999999 -1.2682870000000002 -1.335924 -1.4715307 -1.4948522 -1.5713908 -1.8626604 -1.9504453000000002 -1.7486006 -1.7054109
-1.2682870000000002 -1.335924 -1.4715307 -1.4948522 -1.5713908 -1.8626604 -1.9504453000000002 -1.7486006 -1.7054109 -1.8033503
-1.335924 -1.4715307 -1.4948522 -1.5713908 -1.8626604 -1.9504453000000002 -1.7486006 -1.7054109 -1.8033503 -1.7723573000000001
-1.4715307 -1.4948522 -1.5713908 -1.8626604 -1.9504453000000002 -1.7486006 -1.7054109 -1.8033503 -1.7723573000000001 -1.6900836
-1.4948522 -1.5713908 -1.8626604 -1.9504453000000002 -1.7486006 -1.7054109 -1.8033503 -1.7723573000000001 -1.6900836 -1.6295457
-1.5713908 -1.8626604 -1.9504453000000002 -1.7486006 -1.7054109 -1.8033503 -1.7723573000000001 -1.6900836 -1.6295457 -1.5751586000000002
-1.8626604 -1.9504453000000002 -1.7486006 -1.7054109 -1.8033503 -1.7723573000000001 -1.6900836 -1.6295457 -1.5751586000000002 -1.5344025
-1.9504453000000002 -1.7486006 -1.7054109 -1.8033503 -1.7723573000000001 -1.6900836 -1.6295457 -1.5751586000000002 -1.5344025 -1.3859806000000001
-1.7486006 -1.7054109 -1.8033503 -1.7723573000000001 -1.6900836 -1.6295457 -1.5751586000000002 -1.5344025 -1.3859806000000001 -1.1421926000000002
-1.7054109 -1.8033503 -1.7723573000000001 -1.6900836 -1.6295457 -1.5751586000000002 -1.5344025 -1.3859806000000001 -1.1421926000000002 -0.93927964
-1.8033503 -1.7723573000000001 -1.6900836 -1.6295457 -1.5751586000000002 -1.5344025 -1.3859806000000001 -1.1421926000000002 -0.93927964 -0.67225032
-1.7723573000000001 -1.6900836 -1.6295457 -1.5751586000000002 -1.5344025 -1.3859806000000001 -1.1421926000000002 -0.93927964 -0.67225032 -0.36513353
-1.6900836 -1.6295457 -1.5751586000000002 -1.5344025 -1.3859806000000001 -1.1421926000000002 -0.93927964 -0.67225032 -0.36513353 -0.26430783
-1.6295457 -1.5751586000000002 -1.5344025 -1.3859806000000001 -1.1421926000000002 -0.93927964 -0.67225032 -0.36513353 -0.26430783 -0.24073059
-1.5751586000000002 -1.5344025 -1.3859806000000001 -1.1421926000000002 -0.93927964 -0.67225032 -0.36513353 -0.26430783 -0.24073059 -0.050920263
-1.5344025 -1.3859806000000001 -1.1421926000000002 -0.93927964 -0.67225032 -0.36513353 -0.26430783 -0.24073059 -0.050920263 0.17103641
-1.3859806000000001 -1.1421926000000002 -0.93927964 -0.67225032 -0.36513353 -0.26430783 -0.24073059 -0.050920263 0.17103641 0.32675755
-1.1421926000000002 -0.93927964 -0.67225032 -0.36513353 -0.26430783 -0.24073059 -0.050920263 0.17103641 0.32675755 0.50361779
-0.93927964 -0.67225032 -0.36513353 -0.26430783 -0.24073059 -0.050920263 0.17103641 0.32675755 0.50361779 0.61688495
-0.67225032 -0.36513353 -0.26430783 -0.24073059 -0.050920263 0.17103641 0.32675755 0.50361779 0.61688495 0.58608308
-0.36513353 -0.26430783 -0.24073059 -0.050920263 0.17103641 0.32675755 0.50361779 0.61688495 0.58608308 0.58391661
-0.26430783 -0.24073059 -0.050920263 0.17103641 0.32675755 0.50361779 0.61688495 0.58608308 0.58391661 0.66561855
-0.24073059 -0.050920263 0.17103641 0.32675755 0.50361779 0.61688495 0.58608308 0.58391661 0.66561855 0.64149646
-0.050920263 0.17103641 0.32675755 0.50361779 0.61688495 0.58608308 0.58391661 0.66561855 0.64149646 0.57376149
0.17103641 0.32675755 0.50361779 0.61688495 0.58608308 0.58391661 0.66561855 0.64149646 0.57376149 0.68557701
0.32675755 0.50361779 0.61688495 0.58608308 0.58391661 0.66561855 0.64149646 0.57376149 0.68557701 0.78233391
0.50361779 0.61688495 0.58608308 0.58391661 0.66561855 0.64149646 0.57376149 0.68557701 0.78233391 0.66128551
0.61688495 0.58608308 0.58391661 0.66561855 0.64149646 0.57376149 0.68557701 0.78233391 0.66128551 0.60656306
0.58608308 0.58391661 0.66561855 0.64149646 0.57376149 0.68557701 0.78233391 0.66128551 0.60656306 0.7097423
0.58391661 0.66561855 0.64149646 0.57376149 0.68557701 0.78233391 0.66128551 0.60656306 0.7097423 0.73992807
0.66561855 0.64149646 0.57376149 0.68557701 0.78233391 0.66128551 0.60656306 0.7097423 0.73992807 0.75958848
0.64149646 0.57376149 0.68557701 0.78233391 0.66128551 0.60656306 0.7097423 0.73992807 0.75958848 0.81070347
0.57376149 0.68557701 0.78233391 0.66128551 0.60656306 0.7097423 0.73992807 0.75958848 0.81070347 0.72006148
0.68557701 0.78233391 0.66128551 0.60656306 0.7097423 0.73992807 0.75958848 0.81070347 0.72006148 0.59837902
0.78233391 0.66128551 0.60656306 0.7097423 0.73992807 0.75958848 0.81070347 0.72006148 0.59837902 0.61022571
0.66128551 0.60656306 0.7097423 0.73992807 0.75958848 0.81070347 0.72006148 0.59837902 0.61022571 0.65995343
0.60656306 0.7097423 0.73992807 0.75958848 0.81070347 0.72006148 0.59837902 0.61022571 0.65995343 0.66577939
0.7097423 0.73992807 0.75958848 0.81070347 0.72006148 0.59837902 0.61022571 0.65995343 0.66577939 0.53886891
0.73992807 0.75958848 0.81070347 0.72006148 0.59837902 0.61022571 0.65995343 0.66577939 0.53886891 0.30914391
0.75958848 0.81070347 0.72006148 0.59837902 0.61022571 0.65995343 0.66577939 0.53886891 0.30914391 0.34512159
0.81070347 0.72006148 0.59837902 0.61022571 0.65995343 0.66577939 0.53886891 0.30914391 0.34512159 0.71144273
0.72006148 0.59837902 0.61022571 0.65995343 0.66577939 0.53886891 0.30914391 0.34512159 0.71144273 0.94077722
0.59837902 0.61022571 0.65995343 0.66577939 0.53886891 0.30914391 0.34512159 0.71144273 0.94077722 0.87843816
0.61022571 0.65995343 0.66577939 0.53886891 0.30914391 0.34512159 0.71144273 0.94077722 0.87843816 0.8103929
0.65995343 0.66577939 0.53886891 0.30914391 0.34512159 0.71144273 0.94077722 0.87843816 0.8103929 0.81204616
0.66577939 0.53886891 0.30914391 0.34512159 0.71144273 0.94077722 0.87843816 0.8103929 0.81204616 0.74804029
0.53886891 0.30914391 0.34512159 0.71144273 0.94077722 0.87843816 0.8103929 0.81204616 0.74804029 0.60764791
0.30914391 0.34512159 0.71144273 0.94077722 0.87843816 0.8103929 0.81204616 0.74804029 0.60764791 0.50924331
0.34512159 0.71144273 0.94077722 0.87843816 0.8103929 0.81204616 0.74804029 0.60764791 0.50924331 0.53015995
0.71144273 0.94077722 0.87843816 0.8103929 0.81204616 0.74804029 0.60764791 0.50924331 0.53015995 0.55420565
0.94077722 0.87843816 0.8103929 0.81204616 0.74804029 0.60764791 0.50924331 0.53015995 0.55420565 0.49520923
0.87843816 0.8103929 0.81204616 0.74804029 0.60764791 0.50924331 0.53015995 0.55420565 0.49520923 0.51779314
0.8103929 0.81204616 0.74804029 0.60764791 0.50924331 0.53015995 0.55420565 0.49520923 0.51779314 0.62778032
0.81204616 0.74804029 0.60764791 0.50924331 0.53015995 0.55420565 0.49520923 0.51779314 0.62778032 0.63405918
0.74804029 0.60764791 0.50924331 0.53015995 0.55420565 0.49520923 0.51779314 0.62778032 0.63405918 0.63413117
0.60764791 0.50924331 0.53015995 0.55420565 0.49520923 0.51779314 0.62778032 0.63405918 0.63413117 0.64784964
0.50924331 0.53015995 0.55420565 0.49520923 0.51779314 0.62778032 0.63405918 0.63413117 0.64784964 0.38106202
