0.99292711 2.3228425 2.3505839 2.580396 2.635011 1.4674241000000001 -0.12895384 -0.90738915 -1.0144013 -1.3187678999999999
2.3228425 2.3505839 2.580396 2.635011 1.4674241000000001 -0.12895384 -0.90738915 -1.0144013 -1.3187678999999999 -1.3309024
2.3505839 2.580396 2.635011 1.4674241000000001 -0.12895384 -0.90738915 -1.0144013 -1.3187678999999999 -1.3309024 -1.2728595
2.580396 2.635011 1.4674241000000001 -0.12895384 -0.90738915 -1.0144013 -1.3187678999999999 -1.3309024 -1.2728595 -1.3167993999999998
2.635011 1.4674241000000001 -0.12895384 -0.90738915 -1.0144013 -1.3187678999999999 -1.3309024 -1.2728595 -1.3167993999999998 -1.5566399
1.4674241000000001 -0.12895384 -0.90738915 -1.0144013 -1.3187678999999999 -1.3309024 -1.2728595 -1.3167993999999998 -1.5566399 -1.3384669
-0.12895384 -0.90738915 -1.0144013 -1.3187678999999999 -1.3309024 -1.2728595 -1.3167993999999998 -1.5566399 -1.3384669 -1.5092478
-0.90738915 -1.0144013 -1.3187678999999999 -1.3309024 -1.2728595 -1.3167993999999998 -1.5566399 -1.3384669 -1.5092478 -1.5848065
-1.0144013 -1.3187678999999999 -1.3309024 -1.2728595 -1.3167993999999998 -1.5566399 -1.3384669 -1.5092478 -1.5848065 -1.6530532999999998
-1.3187678999999999 -1.3309024 -1.2728595 -1.3167993999999998 -1.5566399 -1.3384669 -1.5092478 -1.5848065 -1.6530532999999998 -1.9489427
-1.3309024 -1.2728595 -1.3167993999999998 -1.5566399 -1.3384669 -1.5092478 -1.5848065 -1.6530532999999998 -1.9489427 -1.8483551999999999
-1.2728595 -1.3167993999999998 -1.5566399 -1.3384669 -1.5092478 -1.5848065 -1.6530532999999998 -1.9489427 -1.8483551999999999 -1.8435005000000002
-1.3167993999999998 -1.5566399 -1.3384669 -1.5092478 -1.5848065 -1.6530532999999998 -1.9489427 -1.8483551999999999 -1.8435005000000002 -1.8497487000000001
-1.5566399 -1.3384669 -1.5092478 -1.5848065 -1.6530532999999998 -1.9489427 -1.8483551999999999 -1.8435005000000002 -1.8497487000000001 -1.7824383000000001
-1.3384669 -1.5092478 -1.5848065 -1.6530532999999998 -1.9489427 -1.8483551999999999 -1.8435005000000002 -1.8497487000000001 -1.7824383000000001 -1.6660743999999998
-1.5092478 -1.5848065 -1.6530532999999998 -1.9489427 -1.8483551999999999 -1.8435005000000002 -1.8497487000000001 -1.7824383000000001 -1.6660743999999998 -1.5420146000000001
-1.5848065 -1.6530532999999998 -1.9489427 -1.8483551999999999 -1.8435005000000002 -1.8497487000000001 -1.7824383000000001 -1.6660743999999998 -1.5420146000000001 -1.2042296000000001
-1.6530532999999998 -1.9489427 -1.8483551999999999 -1.8435005000000002 -1.8497487000000001 -1.7824383000000001 -1.6660743999999998 -1.5420146000000001 -1.2042296000000001 -0.93147576
-1.9489427 -1.8483551999999999 -1.8435005000000002 -1.8497487000000001 -1.7824383000000001 -1.6660743999999998 -1.5420146000000001 -1.2042296000000001 -0.93147576 -0.59165349
-1.8483551999999999 -1.8435005000000002 -1.8497487000000001 -1.7824383000000001 -1.6660743999999998 -1.5420146000000001 -1.2042296000000001 -0.93147576 -0.59165349 -0.29757467
-1.8435005000000002 -1.8497487000000001 -1.7824383000000001 -1.6660743999999998 -1.5420146000000001 -1.2042296000000001 -0.93147576 -0.59165349 -0.29757467 -0.15772402
-1.8497487000000001 -1.7824383000000001 -1.6660743999999998 -1.5420146000000001 -1.2042296000000001 -0.93147576 -0.59165349 -0.29757467 -0.15772402 0.56933028
-1.7824383000000001 -1.6660743999999998 -1.5420146000000001 -1.2042296000000001 -0.93147576 -0.59165349 -0.29757467 -0.15772402 0.56933028 0.24728897
-1.6660743999999998 -1.5420146000000001 -1.2042296000000001 -0.93147576 -0.59165349 -0.29757467 -0.15772402 0.56933028 0.24728897 0.93645999
-1.5420146000000001 -1.2042296000000001 -0.93147576 -0.59165349 -0.29757467 -0.15772402 0.56933028 0.24728897 0.93645999 0.50760041
-1.2042296000000001 -0.93147576 -0.59165349 -0.29757467 -0.15772402 0.56933028 0.24728897 0.93645999 0.50760041 1.1303664
-0.93147576 -0.59165349 -0.29757467 -0.15772402 0.56933028 0.24728897 0.93645999 0.50760041 1.1303664 0.63644585
-0.59165349 -0.29757467 -0.15772402 0.56933028 0.24728897 0.93645999 0.50760041 1.1303664 0.63644585 0.74346321
-0.29757467 -0.15772402 0.56933028 0.24728897 0.93645999 0.50760041 1.1303664 0.63644585 0.74346321 0.65923206
-0.15772402 0.56933028 0.24728897 0.93645999 0.50760041 1.1303664 0.63644585 0.74346321 0.65923206 0.59201056
0.56933028 0.24728897 0.93645999 0.50760041 1.1303664 0.63644585 0.74346321 0.65923206 0.59201056 0.46852759
0.24728897 0.93645999 0.50760041 1.1303664 0.63644585 0.74346321 0.65923206 0.59201056 0.46852759 0.29239018
0.93645999 0.50760041 1.1303664 0.63644585 0.74346321 0.65923206 0.59201056 0.46852759 0.29239018 0.63852363
0.50760041 1.1303664 0.63644585 0.74346321 0.65923206 0.59201056 0.46852759 0.29239018 0.63852363 0.35734784
1.1303664 0.63644585 0.74346321 0.65923206 0.59201056 0.46852759 0.29239018 0.63852363 0.35734784 0.3773856
0.63644585 0.74346321 0.65923206 0.59201056 0.46852759 0.29239018 0.63852363 0.35734784 0.3773856 0.36620057
0.74346321 0.65923206 0.59201056 0.46852759 0.29239018 0.63852363 0.35734784 0.3773856 0.36620057 0.32036467
0.65923206 0.59201056 0.46852759 0.29239018 0.63852363 0.35734784 0.3773856 0.36620057 0.32036467 0.35763806
0.59201056 0.46852759 0.29239018 0.63852363 0.35734784 0.3773856 0.36620057 0.32036467 0.35763806 0.32480464
0.46852759 0.29239018 0.63852363 0.35734784 0.3773856 0.36620057 0.32036467 0.35763806 0.32480464 0.13541346
0.29239018 0.63852363 0.35734784 0.3773856 0.36620057 0.32036467 0.35763806 0.32480464 0.13541346 0.24938564
0.63852363 0.35734784 0.3773856 0.36620057 0.32036467 0.35763806 0.32480464 0.13541346 0.24938564 0.25877551
0.35734784 0.3773856 0.36620057 0.32036467 0.35763806 0.32480464 0.13541346 0.24938564 0.25877551 0.11292647
0.3773856 0.36620057 0.32036467 0.35763806 0.32480464 0.13541346 0.24938564 0.25877551 0.11292647 0.17071638
0.36620057 0.32036467 0.35763806 0.32480464 0.13541346 0.24938564 0.25877551 0.11292647 0.17071638 0.10999838
0.32036467 0.35763806 0.32480464 0.13541346 0.24938564 0.25877551 0.11292647 0.17071638 0.10999838 0.049029107
0.35763806 0.32480464 0.13541346 0.24938564 0.25877551 0.11292647 0.17071638 0.10999838 0.049029107 0.08926081300000001
0.32480464 0.13541346 0.24938564 0.25877551 0.11292647 0.17071638 0.10999838 0.049029107 0.08926081300000001 0.12838853
0.13541346 0.24938564 0.25877551 0.11292647 0.17071638 0.10999838 0.049029107 0.08926081300000001 0.12838853 0.12960015
0.24938564 0.25877551 0.11292647 0.17071638 0.10999838 0.049029107 0.08926081300000001 0.12838853 0.12960015 0.002581504
0.25877551 0.11292647 0.17071638 0.10999838 0.049029107 0.08926081300000001 0.12838853 0.12960015 0.002581504 0.093249921
0.11292647 0.17071638 0.10999838 0.049029107 0.08926081300000001 0.12838853 0.12960015 0.002581504 0.093249921 0.13312627
0.17071638 0.10999838 0.049029107 0.08926081300000001 0.12838853 0.12960015 0.002581504 0.093249921 0.13312627 -0.1065233
0.10999838 0.049029107 0.08926081300000001 0.12838853 0.12960015 0.002581504 0.093249921 0.13312627 -0.1065233 0.008098873199999999
0.049029107 0.08926081300000001 0.12838853 0.12960015 0.002581504 0.093249921 0.13312627 -0.1065233 0.008098873199999999 0.038201402999999995
0.08926081300000001 0.12838853 0.12960015 0.002581504 0.093249921 0.13312627 -0.1065233 0.008098873199999999 0.038201402999999995 -0.11082325
0.12838853 0.12960015 0.002581504 0.093249921 0.13312627 -0.1065233 0.008098873199999999 0.038201402999999995 -0.11082325 -0.12041552
0.12960015 0.002581504 0.093249921 0.13312627 -0.1065233 0.008098873199999999 0.038201402999999995 -0.11082325 -0.12041552 -0.11178477
0.002581504 0.093249921 0.13312627 -0.1065233 0.008098873199999999 0.038201402999999995 -0.11082325 -0.12041552 -0.11178477 0.049725648
0.093249921 0.13312627 -0.1065233 0.008098873199999999 0.038201402999999995 -0.11082325 -0.12041552 -0.11178477 0.049725648 0.088460607
0.13312627 -0.1065233 0.008098873199999999 0.038201402999999995 -0.11082325 -0.12041552 -0.11178477 0.049725648 0.088460607 0.26363765
-0.1065233 0.008098873199999999 0.038201402999999995 -0.11082325 -0.12041552 -0.11178477 0.049725648 0.088460607 0.26363765 0.53091178
0.008098873199999999 0.038201402999999995 -0.11082325 -0.12041552 -0.11178477 0.049725648 0.088460607 0.26363765 0.53091178 0.16303892
0.038201402999999995 -0.11082325 -0.12041552 -0.11178477 0.049725648 0.088460607 0.26363765 0.53091178 0.16303892 0.27437666
-0.11082325 -0.12041552 -0.11178477 0.049725648 0.088460607 0.26363765 0.53091178 0.16303892 0.27437666 0.023395886
-0.12041552 -0.11178477 0.049725648 0.088460607 0.26363765 0.53091178 0.16303892 0.27437666 0.023395886 0.10734881
-0.11178477 0.049725648 0.088460607 0.26363765 0.53091178 0.16303892 0.27437666 0.023395886 0.10734881 -0.15719862
0.049725648 0.088460607 0.26363765 0.53091178 0.16303892 0.27437666 0.023395886 0.10734881 -0.15719862 -0.10725292
0.088460607 0.26363765 0.53091178 0.16303892 0.27437666 0.023395886 0.10734881 -0.15719862 -0.10725292 0.043185199
0.26363765 0.53091178 0.16303892 0.27437666 0.023395886 0.10734881 -0.15719862 -0.10725292 0.043185199 -0.097837626
0.53091178 0.16303892 0.27437666 0.023395886 0.10734881 -0.15719862 -0.10725292 0.043185199 -0.097837626 0.016612623
0.16303892 0.27437666 0.023395886 0.10734881 -0.15719862 -0.10725292 0.043185199 -0.097837626 0.016612623 -0.054093949
0.27437666 0.023395886 0.10734881 -0.15719862 -0.10725292 0.043185199 -0.097837626 0.016612623 -0.054093949 -0.28676106
0.023395886 0.10734881 -0.15719862 -0.10725292 0.043185199 -0.097837626 0.016612623 -0.054093949 -0.28676106 -0.10816617
0.10734881 -0.15719862 -0.10725292 0.043185199 -0.097837626 0.016612623 -0.054093949 -0.28676106 -0.10816617 -0.08924637
-0.15719862 -0.10725292 0.043185199 -0.097837626 0.016612623 -0.054093949 -0.28676106 -0.10816617 -0.08924637 -0.20700951
-0.10725292 0.043185199 -0.097837626 0.016612623 -0.054093949 -0.28676106 -0.10816617 -0.08924637 -0.20700951 -0.012786486000000001
0.043185199 -0.097837626 0.016612623 -0.054093949 -0.28676106 -0.10816617 -0.08924637 -0.20700951 -0.012786486000000001 -0.18407756
-0.097837626 0.016612623 -0.054093949 -0.28676106 -0.10816617 -0.08924637 -0.20700951 -0.012786486000000001 -0.18407756 -0.29055342
0.016612623 -0.054093949 -0.28676106 -0.10816617 -0.08924637 -0.20700951 -0.012786486000000001 -0.18407756 -0.29055342 -0.10390106
-0.054093949 -0.28676106 -0.10816617 -0.08924637 -0.20700951 -0.012786486000000001 -0.18407756 -0.29055342 -0.10390106 0.038109466
-0.28676106 -0.10816617 -0.08924637 -0.20700951 -0.012786486000000001 -0.18407756 -0.29055342 -0.10390106 0.038109466 0.39968041
-0.10816617 -0.08924637 -0.20700951 -0.012786486000000001 -0.18407756 -0.29055342 -0.10390106 0.038109466 0.39968041 2.0067233
-0.08924637 -0.20700951 -0.012786486000000001 -0.18407756 -0.29055342 -0.10390106 0.038109466 0.39968041 2.0067233 2.2593691000000002
-0.20700951 -0.012786486000000001 -0.18407756 -0.29055342 -0.10390106 0.038109466 0.39968041 2.0067233 2.2593691000000002 2.0786596999999998
-0.012786486000000001 -0.18407756 -0.29055342 -0.10390106 0.038109466 0.39968041 2.0067233 2.2593691000000002 2.0786596999999998 0.98133858
-0.18407756 -0.29055342 -0.10390106 0.038109466 0.39968041 2.0067233 2.2593691000000002 2.0786596999999998 0.98133858 -0.16344038
