0.98308038 0.84106858 1.9682872 3.0955058999999996 2.3676953999999997 1.231601 0.09550663300000001 0.73455973 0.55704498 0.14876106
0.84106858 1.9682872 3.0955058999999996 2.3676953999999997 1.231601 0.09550663300000001 0.73455973 0.55704498 0.14876106 -0.046505167
1.9682872 3.0955058999999996 2.3676953999999997 1.231601 0.09550663300000001 0.73455973 0.55704498 0.14876106 -0.046505167 -0.25952286
3.0955058999999996 2.3676953999999997 1.231601 0.09550663300000001 0.73455973 0.55704498 0.14876106 -0.046505167 -0.25952286 0.077755158
2.3676953999999997 1.231601 0.09550663300000001 0.73455973 0.55704498 0.14876106 -0.046505167 -0.25952286 0.077755158 -0.72106121
1.231601 0.09550663300000001 0.73455973 0.55704498 0.14876106 -0.046505167 -0.25952286 0.077755158 -0.72106121 -0.56129794
0.09550663300000001 0.73455973 0.55704498 0.14876106 -0.046505167 -0.25952286 0.077755158 -0.72106121 -0.56129794 -0.68555826
0.73455973 0.55704498 0.14876106 -0.046505167 -0.25952286 0.077755158 -0.72106121 -0.56129794 -0.68555826 -0.86307301
0.55704498 0.14876106 -0.046505167 -0.25952286 0.077755158 -0.72106121 -0.56129794 -0.68555826 -0.86307301 -0.91632743
0.14876106 -0.046505167 -0.25952286 0.077755158 -0.72106121 -0.56129794 -0.68555826 -0.86307301 -0.91632743 -1.0583392
-0.046505167 -0.25952286 0.077755158 -0.72106121 -0.56129794 -0.68555826 -0.86307301 -0.91632743 -1.0583392 -1.3246114
-0.25952286 0.077755158 -0.72106121 -0.56129794 -0.68555826 -0.86307301 -0.91632743 -1.0583392 -1.3246114 -1.4843746000000002
0.077755158 -0.72106121 -0.56129794 -0.68555826 -0.86307301 -0.91632743 -1.0583392 -1.3246114 -1.4843746000000002 -1.8039011999999999
-0.72106121 -0.56129794 -0.68555826 -0.86307301 -0.91632743 -1.0583392 -1.3246114 -1.4843746000000002 -1.8039011999999999 -1.9636645000000001
-0.56129794 -0.68555826 -0.86307301 -0.91632743 -1.0583392 -1.3246114 -1.4843746000000002 -1.8039011999999999 -1.9636645000000001 -2.2299366000000003
-0.68555826 -0.86307301 -0.91632743 -1.0583392 -1.3246114 -1.4843746000000002 -1.8039011999999999 -1.9636645000000001 -2.2299366000000003 -2.5317116000000004
-0.86307301 -0.91632743 -1.0583392 -1.3246114 -1.4843746000000002 -1.8039011999999999 -1.9636645000000001 -2.2299366000000003 -2.5317116000000004 -2.6027175
-0.91632743 -1.0583392 -1.3246114 -1.4843746000000002 -1.8039011999999999 -1.9636645000000001 -2.2299366000000003 -2.5317116000000004 -2.6027175 -2.5317116000000004
-1.0583392 -1.3246114 -1.4843746000000002 -1.8039011999999999 -1.9636645000000001 -2.2299366000000003 -2.5317116000000004 -2.6027175 -2.5317116000000004 -2.5672146000000002
-1.3246114 -1.4843746000000002 -1.8039011999999999 -1.9636645000000001 -2.2299366000000003 -2.5317116000000004 -2.6027175 -2.5317116000000004 -2.5672146000000002 -2.4962087000000004
-1.4843746000000002 -1.8039011999999999 -1.9636645000000001 -2.2299366000000003 -2.5317116000000004 -2.6027175 -2.5317116000000004 -2.5672146000000002 -2.4962087000000004 -2.0701733
-1.8039011999999999 -1.9636645000000001 -2.2299366000000003 -2.5317116000000004 -2.6027175 -2.5317116000000004 -2.5672146000000002 -2.4962087000000004 -2.0701733 -1.6973923
-1.9636645000000001 -2.2299366000000003 -2.5317116000000004 -2.6027175 -2.5317116000000004 -2.5672146000000002 -2.4962087000000004 -2.0701733 -1.6973923 -1.2891084
-2.2299366000000003 -2.5317116000000004 -2.6027175 -2.5317116000000004 -2.5672146000000002 -2.4962087000000004 -2.0701733 -1.6973923 -1.2891084 -0.93407891
-2.5317116000000004 -2.6027175 -2.5317116000000004 -2.5672146000000002 -2.4962087000000004 -2.0701733 -1.6973923 -1.2891084 -0.93407891 -0.43703761
-2.6027175 -2.5317116000000004 -2.5672146000000002 -2.4962087000000004 -2.0701733 -1.6973923 -1.2891084 -0.93407891 -0.43703761 -0.099759592
-2.5317116000000004 -2.5672146000000002 -2.4962087000000004 -2.0701733 -1.6973923 -1.2891084 -0.93407891 -0.43703761 -0.099759592 -0.099759592
-2.5672146000000002 -2.4962087000000004 -2.0701733 -1.6973923 -1.2891084 -0.93407891 -0.43703761 -0.099759592 -0.099759592 0.36177876
-2.4962087000000004 -2.0701733 -1.6973923 -1.2891084 -0.93407891 -0.43703761 -0.099759592 -0.099759592 0.36177876 0.52154203
-2.0701733 -1.6973923 -1.2891084 -0.93407891 -0.43703761 -0.099759592 -0.099759592 0.36177876 0.52154203 0.64580235
-1.6973923 -1.2891084 -0.93407891 -0.43703761 -0.099759592 -0.099759592 0.36177876 0.52154203 0.64580235 0.27302138
-1.2891084 -0.93407891 -0.43703761 -0.099759592 -0.099759592 0.36177876 0.52154203 0.64580235 0.27302138 0.50379055
-0.93407891 -0.43703761 -0.099759592 -0.099759592 0.36177876 0.52154203 0.64580235 0.27302138 0.50379055 0.30852433
-0.43703761 -0.099759592 -0.099759592 0.36177876 0.52154203 0.64580235 0.27302138 0.50379055 0.30852433 0.43278466
-0.099759592 -0.099759592 0.36177876 0.52154203 0.64580235 0.27302138 0.50379055 0.30852433 0.43278466 0.36177876
-0.099759592 0.36177876 0.52154203 0.64580235 0.27302138 0.50379055 0.30852433 0.43278466 0.36177876 0.37953023
0.36177876 0.52154203 0.64580235 0.27302138 0.50379055 0.30852433 0.43278466 0.36177876 0.37953023 0.29077286
0.52154203 0.64580235 0.27302138 0.50379055 0.30852433 0.43278466 0.36177876 0.37953023 0.29077286 0.5392935000000001
0.64580235 0.27302138 0.50379055 0.30852433 0.43278466 0.36177876 0.37953023 0.29077286 0.5392935000000001 0.30852433
0.27302138 0.50379055 0.30852433 0.43278466 0.36177876 0.37953023 0.29077286 0.5392935000000001 0.30852433 0.62805088
0.50379055 0.30852433 0.43278466 0.36177876 0.37953023 0.29077286 0.5392935000000001 0.30852433 0.62805088 0.57479645
0.30852433 0.43278466 0.36177876 0.37953023 0.29077286 0.5392935000000001 0.30852433 0.62805088 0.57479645 0.6102994
0.43278466 0.36177876 0.37953023 0.29077286 0.5392935000000001 0.30852433 0.62805088 0.57479645 0.6102994 0.57479645
0.36177876 0.37953023 0.29077286 0.5392935000000001 0.30852433 0.62805088 0.57479645 0.6102994 0.57479645 0.25526991
0.37953023 0.29077286 0.5392935000000001 0.30852433 0.62805088 0.57479645 0.6102994 0.57479645 0.25526991 0.6102994
0.29077286 0.5392935000000001 0.30852433 0.62805088 0.57479645 0.6102994 0.57479645 0.25526991 0.6102994 0.34402728
0.5392935000000001 0.30852433 0.62805088 0.57479645 0.6102994 0.57479645 0.25526991 0.6102994 0.34402728 0.57479645
0.30852433 0.62805088 0.57479645 0.6102994 0.57479645 0.25526991 0.6102994 0.34402728 0.57479645 0.41503318
0.62805088 0.57479645 0.6102994 0.57479645 0.25526991 0.6102994 0.34402728 0.57479645 0.41503318 0.21976696
0.57479645 0.6102994 0.57479645 0.25526991 0.6102994 0.34402728 0.57479645 0.41503318 0.21976696 0.27302138
0.6102994 0.57479645 0.25526991 0.6102994 0.34402728 0.57479645 0.41503318 0.21976696 0.27302138 0.55704498
0.57479645 0.25526991 0.6102994 0.34402728 0.57479645 0.41503318 0.21976696 0.27302138 0.55704498 0.30852433
0.25526991 0.6102994 0.34402728 0.57479645 0.41503318 0.21976696 0.27302138 0.55704498 0.30852433 0.25526991
0.6102994 0.34402728 0.57479645 0.41503318 0.21976696 0.27302138 0.55704498 0.30852433 0.25526991 0.29077286
0.34402728 0.57479645 0.41503318 0.21976696 0.27302138 0.55704498 0.30852433 0.25526991 0.29077286 0.27302138
0.57479645 0.41503318 0.21976696 0.27302138 0.55704498 0.30852433 0.25526991 0.29077286 0.27302138 0.50379055
0.41503318 0.21976696 0.27302138 0.55704498 0.30852433 0.25526991 0.29077286 0.27302138 0.50379055 0.18426401
0.21976696 0.27302138 0.55704498 0.30852433 0.25526991 0.29077286 0.27302138 0.50379055 0.18426401 0.30852433
0.27302138 0.55704498 0.30852433 0.25526991 0.29077286 0.27302138 0.50379055 0.18426401 0.30852433 0.23751843
0.55704498 0.30852433 0.25526991 0.29077286 0.27302138 0.50379055 0.18426401 0.30852433 0.23751843 0.060003682999999995
0.30852433 0.25526991 0.29077286 0.27302138 0.50379055 0.18426401 0.30852433 0.23751843 0.060003682999999995 0.16651253
0.25526991 0.29077286 0.27302138 0.50379055 0.18426401 0.30852433 0.23751843 0.060003682999999995 0.16651253 0.20201548
0.29077286 0.27302138 0.50379055 0.18426401 0.30852433 0.23751843 0.060003682999999995 0.16651253 0.20201548 -0.064256642
0.27302138 0.50379055 0.18426401 0.30852433 0.23751843 0.060003682999999995 0.16651253 0.20201548 -0.064256642 0.21976696
0.50379055 0.18426401 0.30852433 0.23751843 0.060003682999999995 0.16651253 0.20201548 -0.064256642 0.21976696 0.18426401
0.18426401 0.30852433 0.23751843 0.060003682999999995 0.16651253 0.20201548 -0.064256642 0.21976696 0.18426401 0.20201548
0.30852433 0.23751843 0.060003682999999995 0.16651253 0.20201548 -0.064256642 0.21976696 0.18426401 0.20201548 0.09550663300000001
0.23751843 0.060003682999999995 0.16651253 0.20201548 -0.064256642 0.21976696 0.18426401 0.20201548 0.09550663300000001 -0.17076549
0.060003682999999995 0.16651253 0.20201548 -0.064256642 0.21976696 0.18426401 0.20201548 0.09550663300000001 -0.17076549 0.50379055
0.16651253 0.20201548 -0.064256642 0.21976696 0.18426401 0.20201548 0.09550663300000001 -0.17076549 0.50379055 0.18426401
0.20201548 -0.064256642 0.21976696 0.18426401 0.20201548 0.09550663300000001 -0.17076549 0.50379055 0.18426401 0.18426401
-0.064256642 0.21976696 0.18426401 0.20201548 0.09550663300000001 -0.17076549 0.50379055 0.18426401 0.18426401 0.11325811
0.21976696 0.18426401 0.20201548 0.09550663300000001 -0.17076549 0.50379055 0.18426401 0.18426401 0.11325811 0.32627581
0.18426401 0.20201548 0.09550663300000001 -0.17076549 0.50379055 0.18426401 0.18426401 0.11325811 0.32627581 0.25526991
0.20201548 0.09550663300000001 -0.17076549 0.50379055 0.18426401 0.18426401 0.11325811 0.32627581 0.25526991 0.25526991
0.09550663300000001 -0.17076549 0.50379055 0.18426401 0.18426401 0.11325811 0.32627581 0.25526991 0.25526991 0.5392935000000001
-0.17076549 0.50379055 0.18426401 0.18426401 0.11325811 0.32627581 0.25526991 0.25526991 0.5392935000000001 0.30852433
0.50379055 0.18426401 0.18426401 0.11325811 0.32627581 0.25526991 0.25526991 0.5392935000000001 0.30852433 0.59254793
0.18426401 0.18426401 0.11325811 0.32627581 0.25526991 0.25526991 0.5392935000000001 0.30852433 0.59254793 0.57479645
0.18426401 0.11325811 0.32627581 0.25526991 0.25526991 0.5392935000000001 0.30852433 0.59254793 0.57479645 0.34402728
0.11325811 0.32627581 0.25526991 0.25526991 0.5392935000000001 0.30852433 0.59254793 0.57479645 0.34402728 0.45053613
0.32627581 0.25526991 0.25526991 0.5392935000000001 0.30852433 0.59254793 0.57479645 0.34402728 0.45053613 0.39728171
0.25526991 0.25526991 0.5392935000000001 0.30852433 0.59254793 0.57479645 0.34402728 0.45053613 0.39728171 0.48603908
0.25526991 0.5392935000000001 0.30852433 0.59254793 0.57479645 0.34402728 0.45053613 0.39728171 0.48603908 0.32627581
0.5392935000000001 0.30852433 0.59254793 0.57479645 0.34402728 0.45053613 0.39728171 0.48603908 0.32627581 0.29077286
0.30852433 0.59254793 0.57479645 0.34402728 0.45053613 0.39728171 0.48603908 0.32627581 0.29077286 0.48603908
0.59254793 0.57479645 0.34402728 0.45053613 0.39728171 0.48603908 0.32627581 0.29077286 0.48603908 0.73455973
