1.668206 2.8481734 2.5169776 2.1727729 0.72046706 0.72537573 1.6386019 1.2929038 1.6095656 1.395034
2.8481734 2.5169776 2.1727729 0.72046706 0.72537573 1.6386019 1.2929038 1.6095656 1.395034 0.1492802
2.5169776 2.1727729 0.72046706 0.72537573 1.6386019 1.2929038 1.6095656 1.395034 0.1492802 -0.33322555
2.1727729 0.72046706 0.72537573 1.6386019 1.2929038 1.6095656 1.395034 0.1492802 -0.33322555 -0.45278197
0.72046706 0.72537573 1.6386019 1.2929038 1.6095656 1.395034 0.1492802 -0.33322555 -0.45278197 -0.78508967
0.72537573 1.6386019 1.2929038 1.6095656 1.395034 0.1492802 -0.33322555 -0.45278197 -0.78508967 -0.82853298
1.6386019 1.2929038 1.6095656 1.395034 0.1492802 -0.33322555 -0.45278197 -0.78508967 -0.82853298 -0.82657129
1.2929038 1.6095656 1.395034 0.1492802 -0.33322555 -0.45278197 -0.78508967 -0.82853298 -0.82657129 -0.97349672
1.6095656 1.395034 0.1492802 -0.33322555 -0.45278197 -0.78508967 -0.82853298 -0.82657129 -0.97349672 -1.1701115
1.395034 0.1492802 -0.33322555 -0.45278197 -0.78508967 -0.82853298 -0.82657129 -0.97349672 -1.1701115 -1.1505492
0.1492802 -0.33322555 -0.45278197 -0.78508967 -0.82853298 -0.82657129 -0.97349672 -1.1701115 -1.1505492 -1.2575322
-0.33322555 -0.45278197 -0.78508967 -0.82853298 -0.82657129 -0.97349672 -1.1701115 -1.1505492 -1.2575322 -1.4203531
-0.45278197 -0.78508967 -0.82853298 -0.82657129 -0.97349672 -1.1701115 -1.1505492 -1.2575322 -1.4203531 -1.4845899999999999
-0.78508967 -0.82853298 -0.82657129 -0.97349672 -1.1701115 -1.1505492 -1.2575322 -1.4203531 -1.4845899999999999 -1.4657847
-0.82853298 -0.82657129 -0.97349672 -1.1701115 -1.1505492 -1.2575322 -1.4203531 -1.4845899999999999 -1.4657847 -1.3779393
-0.82657129 -0.97349672 -1.1701115 -1.1505492 -1.2575322 -1.4203531 -1.4845899999999999 -1.4657847 -1.3779393 -1.6042484
-0.97349672 -1.1701115 -1.1505492 -1.2575322 -1.4203531 -1.4845899999999999 -1.4657847 -1.3779393 -1.6042484 -1.7756386000000002
-1.1701115 -1.1505492 -1.2575322 -1.4203531 -1.4845899999999999 -1.4657847 -1.3779393 -1.6042484 -1.7756386000000002 -1.7615261000000002
-1.1505492 -1.2575322 -1.4203531 -1.4845899999999999 -1.4657847 -1.3779393 -1.6042484 -1.7756386000000002 -1.7615261000000002 -2.0809162
-1.2575322 -1.4203531 -1.4845899999999999 -1.4657847 -1.3779393 -1.6042484 -1.7756386000000002 -1.7615261000000002 -2.0809162 -2.227107
-1.4203531 -1.4845899999999999 -1.4657847 -1.3779393 -1.6042484 -1.7756386000000002 -1.7615261000000002 -2.0809162 -2.227107 -1.9578959999999999
-1.4845899999999999 -1.4657847 -1.3779393 -1.6042484 -1.7756386000000002 -1.7615261000000002 -2.0809162 -2.227107 -1.9578959999999999 -2.1089526000000003
-1.4657847 -1.3779393 -1.6042484 -1.7756386000000002 -1.7615261000000002 -2.0809162 -2.227107 -1.9578959999999999 -2.1089526000000003 -1.89408
-1.3779393 -1.6042484 -1.7756386000000002 -1.7615261000000002 -2.0809162 -2.227107 -1.9578959999999999 -2.1089526000000003 -1.89408 -1.8003226000000003
-1.6042484 -1.7756386000000002 -1.7615261000000002 -2.0809162 -2.227107 -1.9578959999999999 -2.1089526000000003 -1.89408 -1.8003226000000003 -1.464235
-1.7756386000000002 -1.7615261000000002 -2.0809162 -2.227107 -1.9578959999999999 -2.1089526000000003 -1.89408 -1.8003226000000003 -1.464235 -1.0480598
-1.7615261000000002 -2.0809162 -2.227107 -1.9578959999999999 -2.1089526000000003 -1.89408 -1.8003226000000003 -1.464235 -1.0480598 -0.89517518
-2.0809162 -2.227107 -1.9578959999999999 -2.1089526000000003 -1.89408 -1.8003226000000003 -1.464235 -1.0480598 -0.89517518 -0.49069907
-2.227107 -1.9578959999999999 -2.1089526000000003 -1.89408 -1.8003226000000003 -1.464235 -1.0480598 -0.89517518 -0.49069907 -0.017316799
-1.9578959999999999 -2.1089526000000003 -1.89408 -1.8003226000000003 -1.464235 -1.0480598 -0.89517518 -0.49069907 -0.017316799 0.20345441
-2.1089526000000003 -1.89408 -1.8003226000000003 -1.464235 -1.0480598 -0.89517518 -0.49069907 -0.017316799 0.20345441 0.27883112
-1.89408 -1.8003226000000003 -1.464235 -1.0480598 -0.89517518 -0.49069907 -0.017316799 0.20345441 0.27883112 0.67502424
-1.8003226000000003 -1.464235 -1.0480598 -0.89517518 -0.49069907 -0.017316799 0.20345441 0.27883112 0.67502424 0.65510886
-1.464235 -1.0480598 -0.89517518 -0.49069907 -0.017316799 0.20345441 0.27883112 0.67502424 0.65510886 0.68048762
-1.0480598 -0.89517518 -0.49069907 -0.017316799 0.20345441 0.27883112 0.67502424 0.65510886 0.68048762 0.71907747
-0.89517518 -0.49069907 -0.017316799 0.20345441 0.27883112 0.67502424 0.65510886 0.68048762 0.71907747 0.72019
-0.49069907 -0.017316799 0.20345441 0.27883112 0.67502424 0.65510886 0.68048762 0.71907747 0.72019 0.65602258
-0.017316799 0.20345441 0.27883112 0.67502424 0.65510886 0.68048762 0.71907747 0.72019 0.65602258 0.53604253
0.20345441 0.27883112 0.67502424 0.65510886 0.68048762 0.71907747 0.72019 0.65602258 0.53604253 0.66836543
0.27883112 0.67502424 0.65510886 0.68048762 0.71907747 0.72019 0.65602258 0.53604253 0.66836543 0.68619346
0.67502424 0.65510886 0.68048762 0.71907747 0.72019 0.65602258 0.53604253 0.66836543 0.68619346 0.55904631
0.65510886 0.68048762 0.71907747 0.72019 0.65602258 0.53604253 0.66836543 0.68619346 0.55904631 0.56085022
0.68048762 0.71907747 0.72019 0.65602258 0.53604253 0.66836543 0.68619346 0.55904631 0.56085022 0.65964585
0.71907747 0.72019 0.65602258 0.53604253 0.66836543 0.68619346 0.55904631 0.56085022 0.65964585 0.70940886
0.72019 0.65602258 0.53604253 0.66836543 0.68619346 0.55904631 0.56085022 0.65964585 0.70940886 0.61547611
0.65602258 0.53604253 0.66836543 0.68619346 0.55904631 0.56085022 0.65964585 0.70940886 0.61547611 0.63125517
0.53604253 0.66836543 0.68619346 0.55904631 0.56085022 0.65964585 0.70940886 0.61547611 0.63125517 0.56741509
0.66836543 0.68619346 0.55904631 0.56085022 0.65964585 0.70940886 0.61547611 0.63125517 0.56741509 0.40070829
0.68619346 0.55904631 0.56085022 0.65964585 0.70940886 0.61547611 0.63125517 0.56741509 0.40070829 0.45704242
0.55904631 0.56085022 0.65964585 0.70940886 0.61547611 0.63125517 0.56741509 0.40070829 0.45704242 0.50830249
0.56085022 0.65964585 0.70940886 0.61547611 0.63125517 0.56741509 0.40070829 0.45704242 0.50830249 0.41179677
0.65964585 0.70940886 0.61547611 0.63125517 0.56741509 0.40070829 0.45704242 0.50830249 0.41179677 0.40052745
0.70940886 0.61547611 0.63125517 0.56741509 0.40070829 0.45704242 0.50830249 0.41179677 0.40052745 0.36189013
0.61547611 0.63125517 0.56741509 0.40070829 0.45704242 0.50830249 0.41179677 0.40052745 0.36189013 0.26791711
0.63125517 0.56741509 0.40070829 0.45704242 0.50830249 0.41179677 0.40052745 0.36189013 0.26791711 0.32174868
0.56741509 0.40070829 0.45704242 0.50830249 0.41179677 0.40052745 0.36189013 0.26791711 0.32174868 0.26268828
0.40070829 0.45704242 0.50830249 0.41179677 0.40052745 0.36189013 0.26791711 0.32174868 0.26268828 0.22581812
0.45704242 0.50830249 0.41179677 0.40052745 0.36189013 0.26791711 0.32174868 0.26268828 0.22581812 0.25668612
0.50830249 0.41179677 0.40052745 0.36189013 0.26791711 0.32174868 0.26268828 0.22581812 0.25668612 0.14650693
0.41179677 0.40052745 0.36189013 0.26791711 0.32174868 0.26268828 0.22581812 0.25668612 0.14650693 0.12344467
0.40052745 0.36189013 0.26791711 0.32174868 0.26268828 0.22581812 0.25668612 0.14650693 0.12344467 0.10569229
0.36189013 0.26791711 0.32174868 0.26268828 0.22581812 0.25668612 0.14650693 0.12344467 0.10569229 0.19601456
0.26791711 0.32174868 0.26268828 0.22581812 0.25668612 0.14650693 0.12344467 0.10569229 0.19601456 0.06434636
0.32174868 0.26268828 0.22581812 0.25668612 0.14650693 0.12344467 0.10569229 0.19601456 0.06434636 0.08059776
0.26268828 0.22581812 0.25668612 0.14650693 0.12344467 0.10569229 0.19601456 0.06434636 0.08059776 0.33326736
0.22581812 0.25668612 0.14650693 0.12344467 0.10569229 0.19601456 0.06434636 0.08059776 0.33326736 0.29294268
0.25668612 0.14650693 0.12344467 0.10569229 0.19601456 0.06434636 0.08059776 0.33326736 0.29294268 0.38261291
0.14650693 0.12344467 0.10569229 0.19601456 0.06434636 0.08059776 0.33326736 0.29294268 0.38261291 0.6815076
0.12344467 0.10569229 0.19601456 0.06434636 0.08059776 0.33326736 0.29294268 0.38261291 0.6815076 0.61509956
0.10569229 0.19601456 0.06434636 0.08059776 0.33326736 0.29294268 0.38261291 0.6815076 0.61509956 0.32699335
0.19601456 0.06434636 0.08059776 0.33326736 0.29294268 0.38261291 0.6815076 0.61509956 0.32699335 0.165494
0.06434636 0.08059776 0.33326736 0.29294268 0.38261291 0.6815076 0.61509956 0.32699335 0.165494 0.09622552
0.08059776 0.33326736 0.29294268 0.38261291 0.6815076 0.61509956 0.32699335 0.165494 0.09622552 0.018381314
0.33326736 0.29294268 0.38261291 0.6815076 0.61509956 0.32699335 0.165494 0.09622552 0.018381314 -0.036049008
0.29294268 0.38261291 0.6815076 0.61509956 0.32699335 0.165494 0.09622552 0.018381314 -0.036049008 -0.022687817000000002
0.38261291 0.6815076 0.61509956 0.32699335 0.165494 0.09622552 0.018381314 -0.036049008 -0.022687817000000002 -0.0061312772
0.6815076 0.61509956 0.32699335 0.165494 0.09622552 0.018381314 -0.036049008 -0.022687817000000002 -0.0061312772 -0.014322565
0.61509956 0.32699335 0.165494 0.09622552 0.018381314 -0.036049008 -0.022687817000000002 -0.0061312772 -0.014322565 -0.15436469
0.32699335 0.165494 0.09622552 0.018381314 -0.036049008 -0.022687817000000002 -0.0061312772 -0.014322565 -0.15436469 -0.017805312
0.165494 0.09622552 0.018381314 -0.036049008 -0.022687817000000002 -0.0061312772 -0.014322565 -0.15436469 -0.017805312 -0.0075062626
0.09622552 0.018381314 -0.036049008 -0.022687817000000002 -0.0061312772 -0.014322565 -0.15436469 -0.017805312 -0.0075062626 0.0053624637
0.018381314 -0.036049008 -0.022687817000000002 -0.0061312772 -0.014322565 -0.15436469 -0.017805312 -0.0075062626 0.0053624637 -0.026597446
-0.036049008 -0.022687817000000002 -0.0061312772 -0.014322565 -0.15436469 -0.017805312 -0.0075062626 0.0053624637 -0.026597446 -0.048192085999999995
-0.022687817000000002 -0.0061312772 -0.014322565 -0.15436469 -0.017805312 -0.0075062626 0.0053624637 -0.026597446 -0.048192085999999995 -0.032347036
-0.0061312772 -0.014322565 -0.15436469 -0.017805312 -0.0075062626 0.0053624637 -0.026597446 -0.048192085999999995 -0.032347036 -0.21405366
-0.014322565 -0.15436469 -0.017805312 -0.0075062626 0.0053624637 -0.026597446 -0.048192085999999995 -0.032347036 -0.21405366 0.05603087
-0.15436469 -0.017805312 -0.0075062626 0.0053624637 -0.026597446 -0.048192085999999995 -0.032347036 -0.21405366 0.05603087 0.14788919
