0.73543754 1.8699754000000002 2.2378345 1.3957275 0.21107322 -1.4823913999999998 -1.0472139 0.15702017 -0.22123268 0.019546913
1.8699754000000002 2.2378345 1.3957275 0.21107322 -1.4823913999999998 -1.0472139 0.15702017 -0.22123268 0.019546913 0.053034730999999995
2.2378345 1.3957275 0.21107322 -1.4823913999999998 -1.0472139 0.15702017 -0.22123268 0.019546913 0.053034730999999995 -0.16331404
1.3957275 0.21107322 -1.4823913999999998 -1.0472139 0.15702017 -0.22123268 0.019546913 0.053034730999999995 -0.16331404 -0.36689641
0.21107322 -1.4823913999999998 -1.0472139 0.15702017 -0.22123268 0.019546913 0.053034730999999995 -0.16331404 -0.36689641 -0.95736738
-1.4823913999999998 -1.0472139 0.15702017 -0.22123268 0.019546913 0.053034730999999995 -0.16331404 -0.36689641 -0.95736738 -1.103912
-1.0472139 0.15702017 -0.22123268 0.019546913 0.053034730999999995 -0.16331404 -0.36689641 -0.95736738 -1.103912 -1.340855
0.15702017 -0.22123268 0.019546913 0.053034730999999995 -0.16331404 -0.36689641 -0.95736738 -1.103912 -1.340855 -1.0370343000000002
-0.22123268 0.019546913 0.053034730999999995 -0.16331404 -0.36689641 -0.95736738 -1.103912 -1.340855 -1.0370343000000002 -1.2842738
0.019546913 0.053034730999999995 -0.16331404 -0.36689641 -0.95736738 -1.103912 -1.340855 -1.0370343000000002 -1.2842738 -1.3641318
0.053034730999999995 -0.16331404 -0.36689641 -0.95736738 -1.103912 -1.340855 -1.0370343000000002 -1.2842738 -1.3641318 -1.2791881999999999
-0.16331404 -0.36689641 -0.95736738 -1.103912 -1.340855 -1.0370343000000002 -1.2842738 -1.3641318 -1.2791881999999999 -1.4002281
-0.36689641 -0.95736738 -1.103912 -1.340855 -1.0370343000000002 -1.2842738 -1.3641318 -1.2791881999999999 -1.4002281 -1.4080326
-0.95736738 -1.103912 -1.340855 -1.0370343000000002 -1.2842738 -1.3641318 -1.2791881999999999 -1.4002281 -1.4080326 -1.4692785
-1.103912 -1.340855 -1.0370343000000002 -1.2842738 -1.3641318 -1.2791881999999999 -1.4002281 -1.4080326 -1.4692785 -1.6918667
-1.340855 -1.0370343000000002 -1.2842738 -1.3641318 -1.2791881999999999 -1.4002281 -1.4080326 -1.4692785 -1.6918667 -1.6782148000000001
-1.0370343000000002 -1.2842738 -1.3641318 -1.2791881999999999 -1.4002281 -1.4080326 -1.4692785 -1.6918667 -1.6782148000000001 -1.4673317
-1.2842738 -1.3641318 -1.2791881999999999 -1.4002281 -1.4080326 -1.4692785 -1.6918667 -1.6782148000000001 -1.4673317 -1.8244895
-1.3641318 -1.2791881999999999 -1.4002281 -1.4080326 -1.4692785 -1.6918667 -1.6782148000000001 -1.4673317 -1.8244895 -1.9068038
-1.2791881999999999 -1.4002281 -1.4080326 -1.4692785 -1.6918667 -1.6782148000000001 -1.4673317 -1.8244895 -1.9068038 -1.9298943
-1.4002281 -1.4080326 -1.4692785 -1.6918667 -1.6782148000000001 -1.4673317 -1.8244895 -1.9068038 -1.9298943 -1.7127263
-1.4080326 -1.4692785 -1.6918667 -1.6782148000000001 -1.4673317 -1.8244895 -1.9068038 -1.9298943 -1.7127263 -1.8947243999999999
-1.4692785 -1.6918667 -1.6782148000000001 -1.4673317 -1.8244895 -1.9068038 -1.9298943 -1.7127263 -1.8947243999999999 -1.9375769
-1.6918667 -1.6782148000000001 -1.4673317 -1.8244895 -1.9068038 -1.9298943 -1.7127263 -1.8947243999999999 -1.9375769 -1.6380168
-1.6782148000000001 -1.4673317 -1.8244895 -1.9068038 -1.9298943 -1.7127263 -1.8947243999999999 -1.9375769 -1.6380168 -1.7444979
-1.4673317 -1.8244895 -1.9068038 -1.9298943 -1.7127263 -1.8947243999999999 -1.9375769 -1.6380168 -1.7444979 -1.4329895000000001
-1.8244895 -1.9068038 -1.9298943 -1.7127263 -1.8947243999999999 -1.9375769 -1.6380168 -1.7444979 -1.4329895000000001 -1.2871992
-1.9068038 -1.9298943 -1.7127263 -1.8947243999999999 -1.9375769 -1.6380168 -1.7444979 -1.4329895000000001 -1.2871992 -1.2158426000000002
-1.9298943 -1.7127263 -1.8947243999999999 -1.9375769 -1.6380168 -1.7444979 -1.4329895000000001 -1.2871992 -1.2158426000000002 -0.68493209
-1.7127263 -1.8947243999999999 -1.9375769 -1.6380168 -1.7444979 -1.4329895000000001 -1.2871992 -1.2158426000000002 -0.68493209 -0.37072444
-1.8947243999999999 -1.9375769 -1.6380168 -1.7444979 -1.4329895000000001 -1.2871992 -1.2158426000000002 -0.68493209 -0.37072444 -0.23453134
-1.9375769 -1.6380168 -1.7444979 -1.4329895000000001 -1.2871992 -1.2158426000000002 -0.68493209 -0.37072444 -0.23453134 -0.086409319
-1.6380168 -1.7444979 -1.4329895000000001 -1.2871992 -1.2158426000000002 -0.68493209 -0.37072444 -0.23453134 -0.086409319 0.27393778
-1.7444979 -1.4329895000000001 -1.2871992 -1.2158426000000002 -0.68493209 -0.37072444 -0.23453134 -0.086409319 0.27393778 0.38104229
-1.4329895000000001 -1.2871992 -1.2158426000000002 -0.68493209 -0.37072444 -0.23453134 -0.086409319 0.27393778 0.38104229 0.6539539000000001
-1.2871992 -1.2158426000000002 -0.68493209 -0.37072444 -0.23453134 -0.086409319 0.27393778 0.38104229 0.6539539000000001 0.51985868
-1.2158426000000002 -0.68493209 -0.37072444 -0.23453134 -0.086409319 0.27393778 0.38104229 0.6539539000000001 0.51985868 0.67703155
-0.68493209 -0.37072444 -0.23453134 -0.086409319 0.27393778 0.38104229 0.6539539000000001 0.51985868 0.67703155 0.89186799
-0.37072444 -0.23453134 -0.086409319 0.27393778 0.38104229 0.6539539000000001 0.51985868 0.67703155 0.89186799 0.76912619
-0.23453134 -0.086409319 0.27393778 0.38104229 0.6539539000000001 0.51985868 0.67703155 0.89186799 0.76912619 0.69865802
-0.086409319 0.27393778 0.38104229 0.6539539000000001 0.51985868 0.67703155 0.89186799 0.76912619 0.69865802 0.77491053
0.27393778 0.38104229 0.6539539000000001 0.51985868 0.67703155 0.89186799 0.76912619 0.69865802 0.77491053 0.84246016
0.38104229 0.6539539000000001 0.51985868 0.67703155 0.89186799 0.76912619 0.69865802 0.77491053 0.84246016 0.70444584
0.6539539000000001 0.51985868 0.67703155 0.89186799 0.76912619 0.69865802 0.77491053 0.84246016 0.70444584 0.72742393
0.51985868 0.67703155 0.89186799 0.76912619 0.69865802 0.77491053 0.84246016 0.70444584 0.72742393 0.59631786
0.67703155 0.89186799 0.76912619 0.69865802 0.77491053 0.84246016 0.70444584 0.72742393 0.59631786 0.64563288
0.89186799 0.76912619 0.69865802 0.77491053 0.84246016 0.70444584 0.72742393 0.59631786 0.64563288 0.86459168
0.76912619 0.69865802 0.77491053 0.84246016 0.70444584 0.72742393 0.59631786 0.64563288 0.86459168 0.66524626
0.69865802 0.77491053 0.84246016 0.70444584 0.72742393 0.59631786 0.64563288 0.86459168 0.66524626 0.62393512
0.77491053 0.84246016 0.70444584 0.72742393 0.59631786 0.64563288 0.86459168 0.66524626 0.62393512 0.47120656
0.84246016 0.70444584 0.72742393 0.59631786 0.64563288 0.86459168 0.66524626 0.62393512 0.47120656 0.82290509
0.70444584 0.72742393 0.59631786 0.64563288 0.86459168 0.66524626 0.62393512 0.47120656 0.82290509 0.87045218
0.72742393 0.59631786 0.64563288 0.86459168 0.66524626 0.62393512 0.47120656 0.82290509 0.87045218 0.52840362
0.59631786 0.64563288 0.86459168 0.66524626 0.62393512 0.47120656 0.82290509 0.87045218 0.52840362 0.70167141
0.64563288 0.86459168 0.66524626 0.62393512 0.47120656 0.82290509 0.87045218 0.52840362 0.70167141 0.76079688
0.86459168 0.66524626 0.62393512 0.47120656 0.82290509 0.87045218 0.52840362 0.70167141 0.76079688 0.66404873
0.66524626 0.62393512 0.47120656 0.82290509 0.87045218 0.52840362 0.70167141 0.76079688 0.66404873 0.65784907
0.62393512 0.47120656 0.82290509 0.87045218 0.52840362 0.70167141 0.76079688 0.66404873 0.65784907 0.6582625
0.47120656 0.82290509 0.87045218 0.52840362 0.70167141 0.76079688 0.66404873 0.65784907 0.6582625 0.75222882
0.82290509 0.87045218 0.52840362 0.70167141 0.76079688 0.66404873 0.65784907 0.6582625 0.75222882 0.67945989
0.87045218 0.52840362 0.70167141 0.76079688 0.66404873 0.65784907 0.6582625 0.75222882 0.67945989 0.49665420000000005
0.52840362 0.70167141 0.76079688 0.66404873 0.65784907 0.6582625 0.75222882 0.67945989 0.49665420000000005 0.70567358
0.70167141 0.76079688 0.66404873 0.65784907 0.6582625 0.75222882 0.67945989 0.49665420000000005 0.70567358 0.49551026
0.76079688 0.66404873 0.65784907 0.6582625 0.75222882 0.67945989 0.49665420000000005 0.70567358 0.49551026 0.88176751
0.66404873 0.65784907 0.6582625 0.75222882 0.67945989 0.49665420000000005 0.70567358 0.49551026 0.88176751 0.95524748
0.65784907 0.6582625 0.75222882 0.67945989 0.49665420000000005 0.70567358 0.49551026 0.88176751 0.95524748 1.1016101999999999
0.6582625 0.75222882 0.67945989 0.49665420000000005 0.70567358 0.49551026 0.88176751 0.95524748 1.1016101999999999 1.225435
0.75222882 0.67945989 0.49665420000000005 0.70567358 0.49551026 0.88176751 0.95524748 1.1016101999999999 1.225435 0.85128993
0.67945989 0.49665420000000005 0.70567358 0.49551026 0.88176751 0.95524748 1.1016101999999999 1.225435 0.85128993 1.0111744
0.49665420000000005 0.70567358 0.49551026 0.88176751 0.95524748 1.1016101999999999 1.225435 0.85128993 1.0111744 0.66293574
0.70567358 0.49551026 0.88176751 0.95524748 1.1016101999999999 1.225435 0.85128993 1.0111744 0.66293574 0.54521456
0.49551026 0.88176751 0.95524748 1.1016101999999999 1.225435 0.85128993 1.0111744 0.66293574 0.54521456 0.77143072
0.88176751 0.95524748 1.1016101999999999 1.225435 0.85128993 1.0111744 0.66293574 0.54521456 0.77143072 0.37383113
0.95524748 1.1016101999999999 1.225435 0.85128993 1.0111744 0.66293574 0.54521456 0.77143072 0.37383113 0.36460138
1.1016101999999999 1.225435 0.85128993 1.0111744 0.66293574 0.54521456 0.77143072 0.37383113 0.36460138 0.37565211
1.225435 0.85128993 1.0111744 0.66293574 0.54521456 0.77143072 0.37383113 0.36460138 0.37565211 0.40420964
0.85128993 1.0111744 0.66293574 0.54521456 0.77143072 0.37383113 0.36460138 0.37565211 0.40420964 0.45484573
1.0111744 0.66293574 0.54521456 0.77143072 0.37383113 0.36460138 0.37565211 0.40420964 0.45484573 0.24159055
0.66293574 0.54521456 0.77143072 0.37383113 0.36460138 0.37565211 0.40420964 0.45484573 0.24159055 0.34370038
0.54521456 0.77143072 0.37383113 0.36460138 0.37565211 0.40420964 0.45484573 0.24159055 0.34370038 0.33325365
0.77143072 0.37383113 0.36460138 0.37565211 0.40420964 0.45484573 0.24159055 0.34370038 0.33325365 0.34025632
0.37383113 0.36460138 0.37565211 0.40420964 0.45484573 0.24159055 0.34370038 0.33325365 0.34025632 0.45008457
0.36460138 0.37565211 0.40420964 0.45484573 0.24159055 0.34370038 0.33325365 0.34025632 0.45008457 0.20859543
0.37565211 0.40420964 0.45484573 0.24159055 0.34370038 0.33325365 0.34025632 0.45008457 0.20859543 0.29181353
0.40420964 0.45484573 0.24159055 0.34370038 0.33325365 0.34025632 0.45008457 0.20859543 0.29181353 0.48405224
0.45484573 0.24159055 0.34370038 0.33325365 0.34025632 0.45008457 0.20859543 0.29181353 0.48405224 0.44091647
0.24159055 0.34370038 0.33325365 0.34025632 0.45008457 0.20859543 0.29181353 0.48405224 0.44091647 0.29539937
