0.41500979 0.67367738 1.9191069 3.2162676 2.8894929 2.6509826000000003 1.2160414 -0.22193749 0.31057568 0.41078598
0.67367738 1.9191069 3.2162676 2.8894929 2.6509826000000003 1.2160414 -0.22193749 0.31057568 0.41078598 -0.041293451
1.9191069 3.2162676 2.8894929 2.6509826000000003 1.2160414 -0.22193749 0.31057568 0.41078598 -0.041293451 -0.22971460000000002
3.2162676 2.8894929 2.6509826000000003 1.2160414 -0.22193749 0.31057568 0.41078598 -0.041293451 -0.22971460000000002 0.10139349
2.8894929 2.6509826000000003 1.2160414 -0.22193749 0.31057568 0.41078598 -0.041293451 -0.22971460000000002 0.10139349 -0.10164656
2.6509826000000003 1.2160414 -0.22193749 0.31057568 0.41078598 -0.041293451 -0.22971460000000002 0.10139349 -0.10164656 -0.77507146
1.2160414 -0.22193749 0.31057568 0.41078598 -0.041293451 -0.22971460000000002 0.10139349 -0.10164656 -0.77507146 -0.36890014
-0.22193749 0.31057568 0.41078598 -0.041293451 -0.22971460000000002 0.10139349 -0.10164656 -0.77507146 -0.36890014 -0.59624103
0.31057568 0.41078598 -0.041293451 -0.22971460000000002 0.10139349 -0.10164656 -0.77507146 -0.36890014 -0.59624103 -0.95912436
0.41078598 -0.041293451 -0.22971460000000002 0.10139349 -0.10164656 -0.77507146 -0.36890014 -0.59624103 -0.95912436 -0.8567013000000001
-0.041293451 -0.22971460000000002 0.10139349 -0.10164656 -0.77507146 -0.36890014 -0.59624103 -0.95912436 -0.8567013000000001 -0.99241809
-0.22971460000000002 0.10139349 -0.10164656 -0.77507146 -0.36890014 -0.59624103 -0.95912436 -0.8567013000000001 -0.99241809 -1.0888853
0.10139349 -0.10164656 -0.77507146 -0.36890014 -0.59624103 -0.95912436 -0.8567013000000001 -0.99241809 -1.0888853 -1.0417139000000002
-0.10164656 -0.77507146 -0.36890014 -0.59624103 -0.95912436 -0.8567013000000001 -0.99241809 -1.0888853 -1.0417139000000002 -1.1047771
-0.77507146 -0.36890014 -0.59624103 -0.95912436 -0.8567013000000001 -0.99241809 -1.0888853 -1.0417139000000002 -1.1047771 -1.2595511000000001
-0.36890014 -0.59624103 -0.95912436 -0.8567013000000001 -0.99241809 -1.0888853 -1.0417139000000002 -1.1047771 -1.2595511000000001 -1.3323476
-0.59624103 -0.95912436 -0.8567013000000001 -0.99241809 -1.0888853 -1.0417139000000002 -1.1047771 -1.2595511000000001 -1.3323476 -1.4335868
-0.95912436 -0.8567013000000001 -0.99241809 -1.0888853 -1.0417139000000002 -1.1047771 -1.2595511000000001 -1.3323476 -1.4335868 -1.5878223
-0.8567013000000001 -0.99241809 -1.0888853 -1.0417139000000002 -1.1047771 -1.2595511000000001 -1.3323476 -1.4335868 -1.5878223 -1.6363281
-0.99241809 -1.0888853 -1.0417139000000002 -1.1047771 -1.2595511000000001 -1.3323476 -1.4335868 -1.5878223 -1.6363281 -1.5809843000000001
-1.0888853 -1.0417139000000002 -1.1047771 -1.2595511000000001 -1.3323476 -1.4335868 -1.5878223 -1.6363281 -1.5809843000000001 -1.8849703999999998
-1.0417139000000002 -1.1047771 -1.2595511000000001 -1.3323476 -1.4335868 -1.5878223 -1.6363281 -1.5809843000000001 -1.8849703999999998 -1.8502112000000002
-1.1047771 -1.2595511000000001 -1.3323476 -1.4335868 -1.5878223 -1.6363281 -1.5809843000000001 -1.8849703999999998 -1.8502112000000002 -1.5605023999999998
-1.2595511000000001 -1.3323476 -1.4335868 -1.5878223 -1.6363281 -1.5809843000000001 -1.8849703999999998 -1.8502112000000002 -1.5605023999999998 -2.1586919
-1.3323476 -1.4335868 -1.5878223 -1.6363281 -1.5809843000000001 -1.8849703999999998 -1.8502112000000002 -1.5605023999999998 -2.1586919 -1.8949870999999998
-1.4335868 -1.5878223 -1.6363281 -1.5809843000000001 -1.8849703999999998 -1.8502112000000002 -1.5605023999999998 -2.1586919 -1.8949870999999998 -1.5886635
-1.5878223 -1.6363281 -1.5809843000000001 -1.8849703999999998 -1.8502112000000002 -1.5605023999999998 -2.1586919 -1.8949870999999998 -1.5886635 -1.7734618999999998
-1.6363281 -1.5809843000000001 -1.8849703999999998 -1.8502112000000002 -1.5605023999999998 -2.1586919 -1.8949870999999998 -1.5886635 -1.7734618999999998 -1.4500594999999998
-1.5809843000000001 -1.8849703999999998 -1.8502112000000002 -1.5605023999999998 -2.1586919 -1.8949870999999998 -1.5886635 -1.7734618999999998 -1.4500594999999998 -1.262174
-1.8849703999999998 -1.8502112000000002 -1.5605023999999998 -2.1586919 -1.8949870999999998 -1.5886635 -1.7734618999999998 -1.4500594999999998 -1.262174 -0.6652126
-1.8502112000000002 -1.5605023999999998 -2.1586919 -1.8949870999999998 -1.5886635 -1.7734618999999998 -1.4500594999999998 -1.262174 -0.6652126 -0.17822508
-1.5605023999999998 -2.1586919 -1.8949870999999998 -1.5886635 -1.7734618999999998 -1.4500594999999998 -1.262174 -0.6652126 -0.17822508 0.036122577
-2.1586919 -1.8949870999999998 -1.5886635 -1.7734618999999998 -1.4500594999999998 -1.262174 -0.6652126 -0.17822508 0.036122577 0.41654386
-1.8949870999999998 -1.5886635 -1.7734618999999998 -1.4500594999999998 -1.262174 -0.6652126 -0.17822508 0.036122577 0.41654386 0.548315
-1.5886635 -1.7734618999999998 -1.4500594999999998 -1.262174 -0.6652126 -0.17822508 0.036122577 0.41654386 0.548315 0.66836473
-1.7734618999999998 -1.4500594999999998 -1.262174 -0.6652126 -0.17822508 0.036122577 0.41654386 0.548315 0.66836473 0.77296784
-1.4500594999999998 -1.262174 -0.6652126 -0.17822508 0.036122577 0.41654386 0.548315 0.66836473 0.77296784 0.87175677
-1.262174 -0.6652126 -0.17822508 0.036122577 0.41654386 0.548315 0.66836473 0.77296784 0.87175677 1.0227698
-0.6652126 -0.17822508 0.036122577 0.41654386 0.548315 0.66836473 0.77296784 0.87175677 1.0227698 1.0639148
-0.17822508 0.036122577 0.41654386 0.548315 0.66836473 0.77296784 0.87175677 1.0227698 1.0639148 0.87277644
0.036122577 0.41654386 0.548315 0.66836473 0.77296784 0.87175677 1.0227698 1.0639148 0.87277644 0.67065337
0.41654386 0.548315 0.66836473 0.77296784 0.87175677 1.0227698 1.0639148 0.87277644 0.67065337 1.0432044
0.548315 0.66836473 0.77296784 0.87175677 1.0227698 1.0639148 0.87277644 0.67065337 1.0432044 0.84760635
0.66836473 0.77296784 0.87175677 1.0227698 1.0639148 0.87277644 0.67065337 1.0432044 0.84760635 0.49511649
0.77296784 0.87175677 1.0227698 1.0639148 0.87277644 0.67065337 1.0432044 0.84760635 0.49511649 0.76566684
0.87175677 1.0227698 1.0639148 0.87277644 0.67065337 1.0432044 0.84760635 0.49511649 0.76566684 0.55918838
1.0227698 1.0639148 0.87277644 0.67065337 1.0432044 0.84760635 0.49511649 0.76566684 0.55918838 0.6747978
1.0639148 0.87277644 0.67065337 1.0432044 0.84760635 0.49511649 0.76566684 0.55918838 0.6747978 0.59264024
0.87277644 0.67065337 1.0432044 0.84760635 0.49511649 0.76566684 0.55918838 0.6747978 0.59264024 0.49202133
0.67065337 1.0432044 0.84760635 0.49511649 0.76566684 0.55918838 0.6747978 0.59264024 0.49202133 0.70914366
1.0432044 0.84760635 0.49511649 0.76566684 0.55918838 0.6747978 0.59264024 0.49202133 0.70914366 0.62153356
0.84760635 0.49511649 0.76566684 0.55918838 0.6747978 0.59264024 0.49202133 0.70914366 0.62153356 0.49030768
0.49511649 0.76566684 0.55918838 0.6747978 0.59264024 0.49202133 0.70914366 0.62153356 0.49030768 0.54991974
0.76566684 0.55918838 0.6747978 0.59264024 0.49202133 0.70914366 0.62153356 0.49030768 0.54991974 0.65918223
0.55918838 0.6747978 0.59264024 0.49202133 0.70914366 0.62153356 0.49030768 0.54991974 0.65918223 0.4954751
0.6747978 0.59264024 0.49202133 0.70914366 0.62153356 0.49030768 0.54991974 0.65918223 0.4954751 0.54939406
0.59264024 0.49202133 0.70914366 0.62153356 0.49030768 0.54991974 0.65918223 0.4954751 0.54939406 0.40261956
0.49202133 0.70914366 0.62153356 0.49030768 0.54991974 0.65918223 0.4954751 0.54939406 0.40261956 0.20818362
0.70914366 0.62153356 0.49030768 0.54991974 0.65918223 0.4954751 0.54939406 0.40261956 0.20818362 0.55779193
0.62153356 0.49030768 0.54991974 0.65918223 0.4954751 0.54939406 0.40261956 0.20818362 0.55779193 0.26727987
0.49030768 0.54991974 0.65918223 0.4954751 0.54939406 0.40261956 0.20818362 0.55779193 0.26727987 0.27607969
0.54991974 0.65918223 0.4954751 0.54939406 0.40261956 0.20818362 0.55779193 0.26727987 0.27607969 0.31585484
0.65918223 0.4954751 0.54939406 0.40261956 0.20818362 0.55779193 0.26727987 0.27607969 0.31585484 0.10803062
0.4954751 0.54939406 0.40261956 0.20818362 0.55779193 0.26727987 0.27607969 0.31585484 0.10803062 0.16247070000000002
0.54939406 0.40261956 0.20818362 0.55779193 0.26727987 0.27607969 0.31585484 0.10803062 0.16247070000000002 0.23201055
0.40261956 0.20818362 0.55779193 0.26727987 0.27607969 0.31585484 0.10803062 0.16247070000000002 0.23201055 0.61703523
0.20818362 0.55779193 0.26727987 0.27607969 0.31585484 0.10803062 0.16247070000000002 0.23201055 0.61703523 0.68554618
0.55779193 0.26727987 0.27607969 0.31585484 0.10803062 0.16247070000000002 0.23201055 0.61703523 0.68554618 0.54223095
0.26727987 0.27607969 0.31585484 0.10803062 0.16247070000000002 0.23201055 0.61703523 0.68554618 0.54223095 0.59528904
0.27607969 0.31585484 0.10803062 0.16247070000000002 0.23201055 0.61703523 0.68554618 0.54223095 0.59528904 0.26795275
0.31585484 0.10803062 0.16247070000000002 0.23201055 0.61703523 0.68554618 0.54223095 0.59528904 0.26795275 0.20668617
0.10803062 0.16247070000000002 0.23201055 0.61703523 0.68554618 0.54223095 0.59528904 0.26795275 0.20668617 0.027907715
0.16247070000000002 0.23201055 0.61703523 0.68554618 0.54223095 0.59528904 0.26795275 0.20668617 0.027907715 -0.175753
0.23201055 0.61703523 0.68554618 0.54223095 0.59528904 0.26795275 0.20668617 0.027907715 -0.175753 0.19438146
0.61703523 0.68554618 0.54223095 0.59528904 0.26795275 0.20668617 0.027907715 -0.175753 0.19438146 -0.09709317699999999
0.68554618 0.54223095 0.59528904 0.26795275 0.20668617 0.027907715 -0.175753 0.19438146 -0.09709317699999999 -0.32245049
0.54223095 0.59528904 0.26795275 0.20668617 0.027907715 -0.175753 0.19438146 -0.09709317699999999 -0.32245049 -0.0021939396
0.59528904 0.26795275 0.20668617 0.027907715 -0.175753 0.19438146 -0.09709317699999999 -0.32245049 -0.0021939396 0.05254325
0.26795275 0.20668617 0.027907715 -0.175753 0.19438146 -0.09709317699999999 -0.32245049 -0.0021939396 0.05254325 -0.096647804
0.20668617 0.027907715 -0.175753 0.19438146 -0.09709317699999999 -0.32245049 -0.0021939396 0.05254325 -0.096647804 -0.32224132
0.027907715 -0.175753 0.19438146 -0.09709317699999999 -0.32245049 -0.0021939396 0.05254325 -0.096647804 -0.32224132 -0.19478725
-0.175753 0.19438146 -0.09709317699999999 -0.32245049 -0.0021939396 0.05254325 -0.096647804 -0.32224132 -0.19478725 -0.20156981
0.19438146 -0.09709317699999999 -0.32245049 -0.0021939396 0.05254325 -0.096647804 -0.32224132 -0.19478725 -0.20156981 -0.2467759
-0.09709317699999999 -0.32245049 -0.0021939396 0.05254325 -0.096647804 -0.32224132 -0.19478725 -0.20156981 -0.2467759 -0.17661876
-0.32245049 -0.0021939396 0.05254325 -0.096647804 -0.32224132 -0.19478725 -0.20156981 -0.2467759 -0.17661876 -0.41986688
-0.0021939396 0.05254325 -0.096647804 -0.32224132 -0.19478725 -0.20156981 -0.2467759 -0.17661876 -0.41986688 -0.25287784
0.05254325 -0.096647804 -0.32224132 -0.19478725 -0.20156981 -0.2467759 -0.17661876 -0.41986688 -0.25287784 -0.027529814
