0.43707074 0.18274102 -0.38857572 -1.0763128999999998 -1.247922 -0.73082583 -0.17795163 -0.1124692 -0.23692637 -0.10154323
0.18274102 -0.38857572 -1.0763128999999998 -1.247922 -0.73082583 -0.17795163 -0.1124692 -0.23692637 -0.10154323 0.066372326
-0.38857572 -1.0763128999999998 -1.247922 -0.73082583 -0.17795163 -0.1124692 -0.23692637 -0.10154323 0.066372326 -0.14923713
-1.0763128999999998 -1.247922 -0.73082583 -0.17795163 -0.1124692 -0.23692637 -0.10154323 0.066372326 -0.14923713 -0.57392493
-1.247922 -0.73082583 -0.17795163 -0.1124692 -0.23692637 -0.10154323 0.066372326 -0.14923713 -0.57392493 -0.7120064
-0.73082583 -0.17795163 -0.1124692 -0.23692637 -0.10154323 0.066372326 -0.14923713 -0.57392493 -0.7120064 -0.54022507
-0.17795163 -0.1124692 -0.23692637 -0.10154323 0.066372326 -0.14923713 -0.57392493 -0.7120064 -0.54022507 -0.41591443
-0.1124692 -0.23692637 -0.10154323 0.066372326 -0.14923713 -0.57392493 -0.7120064 -0.54022507 -0.41591443 -0.48967529
-0.23692637 -0.10154323 0.066372326 -0.14923713 -0.57392493 -0.7120064 -0.54022507 -0.41591443 -0.48967529 -0.61413303
-0.10154323 0.066372326 -0.14923713 -0.57392493 -0.7120064 -0.54022507 -0.41591443 -0.48967529 -0.61413303 -0.72557428
0.066372326 -0.14923713 -0.57392493 -0.7120064 -0.54022507 -0.41591443 -0.48967529 -0.61413303 -0.72557428 -0.86629299
-0.14923713 -0.57392493 -0.7120064 -0.54022507 -0.41591443 -0.48967529 -0.61413303 -0.72557428 -0.86629299 -0.99517312
-0.57392493 -0.7120064 -0.54022507 -0.41591443 -0.48967529 -0.61413303 -0.72557428 -0.86629299 -0.99517312 -1.0197488000000001
-0.7120064 -0.54022507 -0.41591443 -0.48967529 -0.61413303 -0.72557428 -0.86629299 -0.99517312 -1.0197488000000001 -0.99517312
-0.54022507 -0.41591443 -0.48967529 -0.61413303 -0.72557428 -0.86629299 -0.99517312 -1.0197488000000001 -0.99517312 -1.0380113000000002
-0.41591443 -0.48967529 -0.61413303 -0.72557428 -0.86629299 -0.99517312 -1.0197488000000001 -0.99517312 -1.0380113000000002 -1.1636723999999998
-0.48967529 -0.61413303 -0.72557428 -0.86629299 -0.99517312 -1.0197488000000001 -0.99517312 -1.0380113000000002 -1.1636723999999998 -1.2910559
-0.61413303 -0.72557428 -0.86629299 -0.99517312 -1.0197488000000001 -0.99517312 -1.0380113000000002 -1.1636723999999998 -1.2910559 -1.3995714
-0.72557428 -0.86629299 -0.99517312 -1.0197488000000001 -0.99517312 -1.0380113000000002 -1.1636723999999998 -1.2910559 -1.3995714 -1.5005207
-0.86629299 -0.99517312 -1.0197488000000001 -0.99517312 -1.0380113000000002 -1.1636723999999998 -1.2910559 -1.3995714 -1.5005207 -1.6017705
-0.99517312 -1.0197488000000001 -0.99517312 -1.0380113000000002 -1.1636723999999998 -1.2910559 -1.3995714 -1.5005207 -1.6017705 -1.7099414000000002
-1.0197488000000001 -0.99517312 -1.0380113000000002 -1.1636723999999998 -1.2910559 -1.3995714 -1.5005207 -1.6017705 -1.7099414000000002 -1.8376695
-0.99517312 -1.0380113000000002 -1.1636723999999998 -1.2910559 -1.3995714 -1.5005207 -1.6017705 -1.7099414000000002 -1.8376695 -1.9208202
-1.0380113000000002 -1.1636723999999998 -1.2910559 -1.3995714 -1.5005207 -1.6017705 -1.7099414000000002 -1.8376695 -1.9208202 -1.8713693999999998
-1.1636723999999998 -1.2910559 -1.3995714 -1.5005207 -1.6017705 -1.7099414000000002 -1.8376695 -1.9208202 -1.8713693999999998 -1.7291683999999998
-1.2910559 -1.3995714 -1.5005207 -1.6017705 -1.7099414000000002 -1.8376695 -1.9208202 -1.8713693999999998 -1.7291683999999998 -1.6523203000000002
-1.3995714 -1.5005207 -1.6017705 -1.7099414000000002 -1.8376695 -1.9208202 -1.8713693999999998 -1.7291683999999998 -1.6523203000000002 -1.6688235
-1.5005207 -1.6017705 -1.7099414000000002 -1.8376695 -1.9208202 -1.8713693999999998 -1.7291683999999998 -1.6523203000000002 -1.6688235 -1.6354704
-1.6017705 -1.7099414000000002 -1.8376695 -1.9208202 -1.8713693999999998 -1.7291683999999998 -1.6523203000000002 -1.6688235 -1.6354704 -1.4814733999999998
-1.7099414000000002 -1.8376695 -1.9208202 -1.8713693999999998 -1.7291683999999998 -1.6523203000000002 -1.6688235 -1.6354704 -1.4814733999999998 -1.3321717
-1.8376695 -1.9208202 -1.8713693999999998 -1.7291683999999998 -1.6523203000000002 -1.6688235 -1.6354704 -1.4814733999999998 -1.3321717 -1.259456
-1.9208202 -1.8713693999999998 -1.7291683999999998 -1.6523203000000002 -1.6688235 -1.6354704 -1.4814733999999998 -1.3321717 -1.259456 -1.1468225
-1.8713693999999998 -1.7291683999999998 -1.6523203000000002 -1.6688235 -1.6354704 -1.4814733999999998 -1.3321717 -1.259456 -1.1468225 -0.91981039
-1.7291683999999998 -1.6523203000000002 -1.6688235 -1.6354704 -1.4814733999999998 -1.3321717 -1.259456 -1.1468225 -0.91981039 -0.7424242
-1.6523203000000002 -1.6688235 -1.6354704 -1.4814733999999998 -1.3321717 -1.259456 -1.1468225 -0.91981039 -0.7424242 -0.75550708
-1.6688235 -1.6354704 -1.4814733999999998 -1.3321717 -1.259456 -1.1468225 -0.91981039 -0.7424242 -0.75550708 -0.80982392
-1.6354704 -1.4814733999999998 -1.3321717 -1.259456 -1.1468225 -0.91981039 -0.7424242 -0.75550708 -0.80982392 -0.6267914000000001
-1.4814733999999998 -1.3321717 -1.259456 -1.1468225 -0.91981039 -0.7424242 -0.75550708 -0.80982392 -0.6267914000000001 -0.20322652
-1.3321717 -1.259456 -1.1468225 -0.91981039 -0.7424242 -0.75550708 -0.80982392 -0.6267914000000001 -0.20322652 0.18067076
-1.259456 -1.1468225 -0.91981039 -0.7424242 -0.75550708 -0.80982392 -0.6267914000000001 -0.20322652 0.18067076 0.31912124
-1.1468225 -0.91981039 -0.7424242 -0.75550708 -0.80982392 -0.6267914000000001 -0.20322652 0.18067076 0.31912124 0.33351818
-0.91981039 -0.7424242 -0.75550708 -0.80982392 -0.6267914000000001 -0.20322652 0.18067076 0.31912124 0.33351818 0.43707074
-0.7424242 -0.75550708 -0.80982392 -0.6267914000000001 -0.20322652 0.18067076 0.31912124 0.33351818 0.43707074 0.62131362
-0.75550708 -0.80982392 -0.6267914000000001 -0.20322652 0.18067076 0.31912124 0.33351818 0.43707074 0.62131362 0.68981965
-0.80982392 -0.6267914000000001 -0.20322652 0.18067076 0.31912124 0.33351818 0.43707074 0.62131362 0.68981965 0.62938654
-0.6267914000000001 -0.20322652 0.18067076 0.31912124 0.33351818 0.43707074 0.62131362 0.68981965 0.62938654 0.6561198
-0.20322652 0.18067076 0.31912124 0.33351818 0.43707074 0.62131362 0.68981965 0.62938654 0.6561198 0.88433353
0.18067076 0.31912124 0.33351818 0.43707074 0.62131362 0.68981965 0.62938654 0.6561198 0.88433353 1.1110678
0.31912124 0.33351818 0.43707074 0.62131362 0.68981965 0.62938654 0.6561198 0.88433353 1.1110678 1.1367263
0.33351818 0.43707074 0.62131362 0.68981965 0.62938654 0.6561198 0.88433353 1.1110678 1.1367263 1.0436681
0.43707074 0.62131362 0.68981965 0.62938654 0.6561198 0.88433353 1.1110678 1.1367263 1.0436681 1.0240922
0.62131362 0.68981965 0.62938654 0.6561198 0.88433353 1.1110678 1.1367263 1.0436681 1.0240922 1.0436681
0.68981965 0.62938654 0.6561198 0.88433353 1.1110678 1.1367263 1.0436681 1.0240922 1.0436681 0.95551695
0.62938654 0.6561198 0.88433353 1.1110678 1.1367263 1.0436681 1.0240922 1.0436681 0.95551695 0.79091922
0.6561198 0.88433353 1.1110678 1.1367263 1.0436681 1.0240922 1.0436681 0.95551695 0.79091922 0.75110276
0.88433353 1.1110678 1.1367263 1.0436681 1.0240922 1.0436681 0.95551695 0.79091922 0.75110276 0.89201878
1.1110678 1.1367263 1.0436681 1.0240922 1.0436681 0.95551695 0.79091922 0.75110276 0.89201878 1.0496927
1.1367263 1.0436681 1.0240922 1.0436681 0.95551695 0.79091922 0.75110276 0.89201878 1.0496927 1.0605181000000001
1.0436681 1.0240922 1.0436681 0.95551695 0.79091922 0.75110276 0.89201878 1.0496927 1.0605181000000001 0.96637615
1.0240922 1.0436681 0.95551695 0.79091922 0.75110276 0.89201878 1.0496927 1.0605181000000001 0.96637615 0.90886871
1.0436681 0.95551695 0.79091922 0.75110276 0.89201878 1.0496927 1.0605181000000001 0.96637615 0.90886871 0.93143944
0.95551695 0.79091922 0.75110276 0.89201878 1.0496927 1.0605181000000001 0.96637615 0.90886871 0.93143944 0.94256857
0.79091922 0.75110276 0.89201878 1.0496927 1.0605181000000001 0.96637615 0.90886871 0.93143944 0.94256857 0.88622598
0.75110276 0.89201878 1.0496927 1.0605181000000001 0.96637615 0.90886871 0.93143944 0.94256857 0.88622598 0.841469
0.89201878 1.0496927 1.0605181000000001 0.96637615 0.90886871 0.93143944 0.94256857 0.88622598 0.841469 0.89907418
1.0496927 1.0605181000000001 0.96637615 0.90886871 0.93143944 0.94256857 0.88622598 0.841469 0.89907418 1.0099683000000002
1.0605181000000001 0.96637615 0.90886871 0.93143944 0.94256857 0.88622598 0.841469 0.89907418 1.0099683000000002 1.0532713
0.96637615 0.90886871 0.93143944 0.94256857 0.88622598 0.841469 0.89907418 1.0099683000000002 1.0532713 1.0099683000000002
0.90886871 0.93143944 0.94256857 0.88622598 0.841469 0.89907418 1.0099683000000002 1.0532713 1.0099683000000002 0.97005977
0.93143944 0.94256857 0.88622598 0.841469 0.89907418 1.0099683000000002 1.0532713 1.0099683000000002 0.97005977 0.99311835
0.94256857 0.88622598 0.841469 0.89907418 1.0099683000000002 1.0532713 1.0099683000000002 0.97005977 0.99311835 1.0461243
0.88622598 0.841469 0.89907418 1.0099683000000002 1.0532713 1.0099683000000002 0.97005977 0.99311835 1.0461243 1.0605181000000001
0.841469 0.89907418 1.0099683000000002 1.0532713 1.0099683000000002 0.97005977 0.99311835 1.0461243 1.0605181000000001 0.98671204
0.89907418 1.0099683000000002 1.0532713 1.0099683000000002 0.97005977 0.99311835 1.0461243 1.0605181000000001 0.98671204 0.841469
1.0099683000000002 1.0532713 1.0099683000000002 0.97005977 0.99311835 1.0461243 1.0605181000000001 0.98671204 0.841469 0.73180897
1.0532713 1.0099683000000002 0.97005977 0.99311835 1.0461243 1.0605181000000001 0.98671204 0.841469 0.73180897 0.75721936
1.0099683000000002 0.97005977 0.99311835 1.0461243 1.0605181000000001 0.98671204 0.841469 0.73180897 0.75721936 0.85410098
0.97005977 0.99311835 1.0461243 1.0605181000000001 0.98671204 0.841469 0.73180897 0.75721936 0.85410098 0.85831893
0.99311835 1.0461243 1.0605181000000001 0.98671204 0.841469 0.73180897 0.75721936 0.85410098 0.85831893 0.76343678
1.0461243 1.0605181000000001 0.98671204 0.841469 0.73180897 0.75721936 0.85410098 0.85831893 0.76343678 0.75721936
1.0605181000000001 0.98671204 0.841469 0.73180897 0.75721936 0.85410098 0.85831893 0.76343678 0.75721936 0.92377713
0.98671204 0.841469 0.73180897 0.75721936 0.85410098 0.85831893 0.76343678 0.75721936 0.92377713 1.0942178999999999
0.841469 0.73180897 0.75721936 0.85410098 0.85831893 0.76343678 0.75721936 0.92377713 1.0942178999999999 1.1039632
0.73180897 0.75721936 0.85410098 0.85831893 0.76343678 0.75721936 0.92377713 1.0942178999999999 1.1039632 1.0268182
0.75721936 0.85410098 0.85831893 0.76343678 0.75721936 0.92377713 1.0942178999999999 1.1039632 1.0268182 1.0052978000000001
0.85410098 0.85831893 0.76343678 0.75721936 0.92377713 1.0942178999999999 1.1039632 1.0268182 1.0052978000000001 1.0099683000000002
0.85831893 0.76343678 0.75721936 0.92377713 1.0942178999999999 1.1039632 1.0268182 1.0052978000000001 1.0099683000000002 0.9373903
