1.2259204 1.8508505000000002 2.8294222999999996 3.263266 2.1600331 1.3472488 0.6058005 -0.75581516 -0.8421453000000001 -0.020085156
1.8508505000000002 2.8294222999999996 3.263266 2.1600331 1.3472488 0.6058005 -0.75581516 -0.8421453000000001 -0.020085156 -0.25751114
2.8294222999999996 3.263266 2.1600331 1.3472488 0.6058005 -0.75581516 -0.8421453000000001 -0.020085156 -0.25751114 -0.45800598
3.263266 2.1600331 1.3472488 0.6058005 -0.75581516 -0.8421453000000001 -0.020085156 -0.25751114 -0.45800598 -0.20190807
2.1600331 1.3472488 0.6058005 -0.75581516 -0.8421453000000001 -0.020085156 -0.25751114 -0.45800598 -0.20190807 -0.32052377
1.3472488 0.6058005 -0.75581516 -0.8421453000000001 -0.020085156 -0.25751114 -0.45800598 -0.20190807 -0.32052377 -0.33016424
0.6058005 -0.75581516 -0.8421453000000001 -0.020085156 -0.25751114 -0.45800598 -0.20190807 -0.32052377 -0.33016424 -0.28678445
-0.75581516 -0.8421453000000001 -0.020085156 -0.25751114 -0.45800598 -0.20190807 -0.32052377 -0.33016424 -0.28678445 -0.38412916
-0.8421453000000001 -0.020085156 -0.25751114 -0.45800598 -0.20190807 -0.32052377 -0.33016424 -0.28678445 -0.38412916 -0.45739365
-0.020085156 -0.25751114 -0.45800598 -0.20190807 -0.32052377 -0.33016424 -0.28678445 -0.38412916 -0.45739365 -0.79393108
-0.25751114 -0.45800598 -0.20190807 -0.32052377 -0.33016424 -0.28678445 -0.38412916 -0.45739365 -0.79393108 -0.97711277
-0.45800598 -0.20190807 -0.32052377 -0.33016424 -0.28678445 -0.38412916 -0.45739365 -0.79393108 -0.97711277 -0.64542274
-0.20190807 -0.32052377 -0.33016424 -0.28678445 -0.38412916 -0.45739365 -0.79393108 -0.97711277 -0.64542274 -0.75732619
-0.32052377 -0.33016424 -0.28678445 -0.38412916 -0.45739365 -0.79393108 -0.97711277 -0.64542274 -0.75732619 -1.0511368
-0.33016424 -0.28678445 -0.38412916 -0.45739365 -0.79393108 -0.97711277 -0.64542274 -0.75732619 -1.0511368 -0.97099145
-0.28678445 -0.38412916 -0.45739365 -0.79393108 -0.97711277 -0.64542274 -0.75732619 -1.0511368 -0.97099145 -1.2059984
-0.38412916 -0.45739365 -0.79393108 -0.97711277 -0.64542274 -0.75732619 -1.0511368 -0.97099145 -1.2059984 -1.3835055
-0.45739365 -0.79393108 -0.97711277 -0.64542274 -0.75732619 -1.0511368 -0.97099145 -1.2059984 -1.3835055 -1.2444735
-0.79393108 -0.97711277 -0.64542274 -0.75732619 -1.0511368 -0.97099145 -1.2059984 -1.3835055 -1.2444735 -1.3142344
-0.97711277 -0.64542274 -0.75732619 -1.0511368 -0.97099145 -1.2059984 -1.3835055 -1.2444735 -1.3142344 -1.4773477
-0.64542274 -0.75732619 -1.0511368 -0.97099145 -1.2059984 -1.3835055 -1.2444735 -1.3142344 -1.4773477 -1.6714611000000001
-0.75732619 -1.0511368 -0.97099145 -1.2059984 -1.3835055 -1.2444735 -1.3142344 -1.4773477 -1.6714611000000001 -1.7352912
-1.0511368 -0.97099145 -1.2059984 -1.3835055 -1.2444735 -1.3142344 -1.4773477 -1.6714611000000001 -1.7352912 -1.610633
-0.97099145 -1.2059984 -1.3835055 -1.2444735 -1.3142344 -1.4773477 -1.6714611000000001 -1.7352912 -1.610633 -1.7341661
-1.2059984 -1.3835055 -1.2444735 -1.3142344 -1.4773477 -1.6714611000000001 -1.7352912 -1.610633 -1.7341661 -1.9516243000000002
-1.3835055 -1.2444735 -1.3142344 -1.4773477 -1.6714611000000001 -1.7352912 -1.610633 -1.7341661 -1.9516243000000002 -1.7901028
-1.2444735 -1.3142344 -1.4773477 -1.6714611000000001 -1.7352912 -1.610633 -1.7341661 -1.9516243000000002 -1.7901028 -1.6197654
-1.3142344 -1.4773477 -1.6714611000000001 -1.7352912 -1.610633 -1.7341661 -1.9516243000000002 -1.7901028 -1.6197654 -1.6608119
-1.4773477 -1.6714611000000001 -1.7352912 -1.610633 -1.7341661 -1.9516243000000002 -1.7901028 -1.6197654 -1.6608119 -1.5337531999999998
-1.6714611000000001 -1.7352912 -1.610633 -1.7341661 -1.9516243000000002 -1.7901028 -1.6197654 -1.6608119 -1.5337531999999998 -1.3233466
-1.7352912 -1.610633 -1.7341661 -1.9516243000000002 -1.7901028 -1.6197654 -1.6608119 -1.5337531999999998 -1.3233466 -1.2214091
-1.610633 -1.7341661 -1.9516243000000002 -1.7901028 -1.6197654 -1.6608119 -1.5337531999999998 -1.3233466 -1.2214091 -1.046124
-1.7341661 -1.9516243000000002 -1.7901028 -1.6197654 -1.6608119 -1.5337531999999998 -1.3233466 -1.2214091 -1.046124 -0.68745478
-1.9516243000000002 -1.7901028 -1.6197654 -1.6608119 -1.5337531999999998 -1.3233466 -1.2214091 -1.046124 -0.68745478 -0.37534271
-1.7901028 -1.6197654 -1.6608119 -1.5337531999999998 -1.3233466 -1.2214091 -1.046124 -0.68745478 -0.37534271 -0.29542399999999996
-1.6197654 -1.6608119 -1.5337531999999998 -1.3233466 -1.2214091 -1.046124 -0.68745478 -0.37534271 -0.29542399999999996 -0.14324557
-1.6608119 -1.5337531999999998 -1.3233466 -1.2214091 -1.046124 -0.68745478 -0.37534271 -0.29542399999999996 -0.14324557 0.12981266
-1.5337531999999998 -1.3233466 -1.2214091 -1.046124 -0.68745478 -0.37534271 -0.29542399999999996 -0.14324557 0.12981266 0.28452149
-1.3233466 -1.2214091 -1.046124 -0.68745478 -0.37534271 -0.29542399999999996 -0.14324557 0.12981266 0.28452149 0.364611
-1.2214091 -1.046124 -0.68745478 -0.37534271 -0.29542399999999996 -0.14324557 0.12981266 0.28452149 0.364611 0.40489234
-1.046124 -0.68745478 -0.37534271 -0.29542399999999996 -0.14324557 0.12981266 0.28452149 0.364611 0.40489234 0.40548486
-0.68745478 -0.37534271 -0.29542399999999996 -0.14324557 0.12981266 0.28452149 0.364611 0.40489234 0.40548486 0.40420162
-0.37534271 -0.29542399999999996 -0.14324557 0.12981266 0.28452149 0.364611 0.40489234 0.40548486 0.40420162 0.35692385
-0.29542399999999996 -0.14324557 0.12981266 0.28452149 0.364611 0.40489234 0.40548486 0.40420162 0.35692385 0.36216982
-0.14324557 0.12981266 0.28452149 0.364611 0.40489234 0.40548486 0.40420162 0.35692385 0.36216982 0.44092194
0.12981266 0.28452149 0.364611 0.40489234 0.40548486 0.40420162 0.35692385 0.36216982 0.44092194 0.37749129
0.28452149 0.364611 0.40489234 0.40548486 0.40420162 0.35692385 0.36216982 0.44092194 0.37749129 0.34421921
0.364611 0.40489234 0.40548486 0.40420162 0.35692385 0.36216982 0.44092194 0.37749129 0.34421921 0.38923281
0.40489234 0.40548486 0.40420162 0.35692385 0.36216982 0.44092194 0.37749129 0.34421921 0.38923281 0.1811664
0.40548486 0.40420162 0.35692385 0.36216982 0.44092194 0.37749129 0.34421921 0.38923281 0.1811664 0.12140753
0.40420162 0.35692385 0.36216982 0.44092194 0.37749129 0.34421921 0.38923281 0.1811664 0.12140753 0.20907595
0.35692385 0.36216982 0.44092194 0.37749129 0.34421921 0.38923281 0.1811664 0.12140753 0.20907595 0.073102099
0.36216982 0.44092194 0.37749129 0.34421921 0.38923281 0.1811664 0.12140753 0.20907595 0.073102099 0.12791697
0.44092194 0.37749129 0.34421921 0.38923281 0.1811664 0.12140753 0.20907595 0.073102099 0.12791697 0.20966993
0.37749129 0.34421921 0.38923281 0.1811664 0.12140753 0.20907595 0.073102099 0.12791697 0.20966993 0.10841687
0.34421921 0.38923281 0.1811664 0.12140753 0.20907595 0.073102099 0.12791697 0.20966993 0.10841687 0.09687152800000001
0.38923281 0.1811664 0.12140753 0.20907595 0.073102099 0.12791697 0.20966993 0.10841687 0.09687152800000001 0.253693
0.1811664 0.12140753 0.20907595 0.073102099 0.12791697 0.20966993 0.10841687 0.09687152800000001 0.253693 0.62839466
0.12140753 0.20907595 0.073102099 0.12791697 0.20966993 0.10841687 0.09687152800000001 0.253693 0.62839466 0.77861289
0.20907595 0.073102099 0.12791697 0.20966993 0.10841687 0.09687152800000001 0.253693 0.62839466 0.77861289 0.707466
0.073102099 0.12791697 0.20966993 0.10841687 0.09687152800000001 0.253693 0.62839466 0.77861289 0.707466 0.76560167
0.12791697 0.20966993 0.10841687 0.09687152800000001 0.253693 0.62839466 0.77861289 0.707466 0.76560167 0.69542167
0.20966993 0.10841687 0.09687152800000001 0.253693 0.62839466 0.77861289 0.707466 0.76560167 0.69542167 0.73705912
0.10841687 0.09687152800000001 0.253693 0.62839466 0.77861289 0.707466 0.76560167 0.69542167 0.73705912 1.0000556999999999
0.09687152800000001 0.253693 0.62839466 0.77861289 0.707466 0.76560167 0.69542167 0.73705912 1.0000556999999999 1.112517
0.253693 0.62839466 0.77861289 0.707466 0.76560167 0.69542167 0.73705912 1.0000556999999999 1.112517 1.1496046
0.62839466 0.77861289 0.707466 0.76560167 0.69542167 0.73705912 1.0000556999999999 1.112517 1.1496046 1.2669278
0.77861289 0.707466 0.76560167 0.69542167 0.73705912 1.0000556999999999 1.112517 1.1496046 1.2669278 1.4226271000000001
0.707466 0.76560167 0.69542167 0.73705912 1.0000556999999999 1.112517 1.1496046 1.2669278 1.4226271000000001 1.3073774
0.76560167 0.69542167 0.73705912 1.0000556999999999 1.112517 1.1496046 1.2669278 1.4226271000000001 1.3073774 1.0300946
0.69542167 0.73705912 1.0000556999999999 1.112517 1.1496046 1.2669278 1.4226271000000001 1.3073774 1.0300946 0.89760681
0.73705912 1.0000556999999999 1.112517 1.1496046 1.2669278 1.4226271000000001 1.3073774 1.0300946 0.89760681 0.62940603
1.0000556999999999 1.112517 1.1496046 1.2669278 1.4226271000000001 1.3073774 1.0300946 0.89760681 0.62940603 0.46698548
1.112517 1.1496046 1.2669278 1.4226271000000001 1.3073774 1.0300946 0.89760681 0.62940603 0.46698548 0.56096792
1.1496046 1.2669278 1.4226271000000001 1.3073774 1.0300946 0.89760681 0.62940603 0.46698548 0.56096792 0.46951187
1.2669278 1.4226271000000001 1.3073774 1.0300946 0.89760681 0.62940603 0.46698548 0.56096792 0.46951187 0.43776261
1.4226271000000001 1.3073774 1.0300946 0.89760681 0.62940603 0.46698548 0.56096792 0.46951187 0.43776261 0.53859312
1.3073774 1.0300946 0.89760681 0.62940603 0.46698548 0.56096792 0.46951187 0.43776261 0.53859312 0.38359117
1.0300946 0.89760681 0.62940603 0.46698548 0.56096792 0.46951187 0.43776261 0.53859312 0.38359117 0.19577834
0.89760681 0.62940603 0.46698548 0.56096792 0.46951187 0.43776261 0.53859312 0.38359117 0.19577834 0.17058344
0.62940603 0.46698548 0.56096792 0.46951187 0.43776261 0.53859312 0.38359117 0.19577834 0.17058344 0.10325461
0.46698548 0.56096792 0.46951187 0.43776261 0.53859312 0.38359117 0.19577834 0.17058344 0.10325461 0.13442427
0.56096792 0.46951187 0.43776261 0.53859312 0.38359117 0.19577834 0.17058344 0.10325461 0.13442427 0.20905684
0.46951187 0.43776261 0.53859312 0.38359117 0.19577834 0.17058344 0.10325461 0.13442427 0.20905684 0.060733267
0.43776261 0.53859312 0.38359117 0.19577834 0.17058344 0.10325461 0.13442427 0.20905684 0.060733267 -0.11545964
0.53859312 0.38359117 0.19577834 0.17058344 0.10325461 0.13442427 0.20905684 0.060733267 -0.11545964 -0.11310455
0.38359117 0.19577834 0.17058344 0.10325461 0.13442427 0.20905684 0.060733267 -0.11545964 -0.11310455 -0.023894207
