0.19767692 0.45541658 0.97310983 1.9359563999999998 2.259463 1.7413406999999999 1.1582961 0.41824112 -0.071605093 -0.24124953
0.45541658 0.97310983 1.9359563999999998 2.259463 1.7413406999999999 1.1582961 0.41824112 -0.071605093 -0.24124953 -0.24347772
0.97310983 1.9359563999999998 2.259463 1.7413406999999999 1.1582961 0.41824112 -0.071605093 -0.24124953 -0.24347772 -0.2639019
1.9359563999999998 2.259463 1.7413406999999999 1.1582961 0.41824112 -0.071605093 -0.24124953 -0.24347772 -0.2639019 -0.62165563
2.259463 1.7413406999999999 1.1582961 0.41824112 -0.071605093 -0.24124953 -0.24347772 -0.2639019 -0.62165563 -0.41871614
1.7413406999999999 1.1582961 0.41824112 -0.071605093 -0.24124953 -0.24347772 -0.2639019 -0.62165563 -0.41871614 -0.18850206
1.1582961 0.41824112 -0.071605093 -0.24124953 -0.24347772 -0.2639019 -0.62165563 -0.41871614 -0.18850206 -0.6231424
0.41824112 -0.071605093 -0.24124953 -0.24347772 -0.2639019 -0.62165563 -0.41871614 -0.18850206 -0.6231424 -0.93578951
-0.071605093 -0.24124953 -0.24347772 -0.2639019 -0.62165563 -0.41871614 -0.18850206 -0.6231424 -0.93578951 -1.1178232
-0.24124953 -0.24347772 -0.2639019 -0.62165563 -0.41871614 -0.18850206 -0.6231424 -0.93578951 -1.1178232 -1.2450346
-0.24347772 -0.2639019 -0.62165563 -0.41871614 -0.18850206 -0.6231424 -0.93578951 -1.1178232 -1.2450346 -1.3277681000000001
-0.2639019 -0.62165563 -0.41871614 -0.18850206 -0.6231424 -0.93578951 -1.1178232 -1.2450346 -1.3277681000000001 -1.3543206
-0.62165563 -0.41871614 -0.18850206 -0.6231424 -0.93578951 -1.1178232 -1.2450346 -1.3277681000000001 -1.3543206 -1.2618599
-0.41871614 -0.18850206 -0.6231424 -0.93578951 -1.1178232 -1.2450346 -1.3277681000000001 -1.3543206 -1.2618599 -1.2808817
-0.18850206 -0.6231424 -0.93578951 -1.1178232 -1.2450346 -1.3277681000000001 -1.3543206 -1.2618599 -1.2808817 -1.3678758999999998
-0.6231424 -0.93578951 -1.1178232 -1.2450346 -1.3277681000000001 -1.3543206 -1.2618599 -1.2808817 -1.3678758999999998 -1.5093921000000001
-0.93578951 -1.1178232 -1.2450346 -1.3277681000000001 -1.3543206 -1.2618599 -1.2808817 -1.3678758999999998 -1.5093921000000001 -1.7489948
-1.1178232 -1.2450346 -1.3277681000000001 -1.3543206 -1.2618599 -1.2808817 -1.3678758999999998 -1.5093921000000001 -1.7489948 -1.691137
-1.2450346 -1.3277681000000001 -1.3543206 -1.2618599 -1.2808817 -1.3678758999999998 -1.5093921000000001 -1.7489948 -1.691137 -1.5754371
-1.3277681000000001 -1.3543206 -1.2618599 -1.2808817 -1.3678758999999998 -1.5093921000000001 -1.7489948 -1.691137 -1.5754371 -1.8345013
-1.3543206 -1.2618599 -1.2808817 -1.3678758999999998 -1.5093921000000001 -1.7489948 -1.691137 -1.5754371 -1.8345013 -1.8479682000000002
-1.2618599 -1.2808817 -1.3678758999999998 -1.5093921000000001 -1.7489948 -1.691137 -1.5754371 -1.8345013 -1.8479682000000002 -1.7746863999999998
-1.2808817 -1.3678758999999998 -1.5093921000000001 -1.7489948 -1.691137 -1.5754371 -1.8345013 -1.8479682000000002 -1.7746863999999998 -2.0595725
-1.3678758999999998 -1.5093921000000001 -1.7489948 -1.691137 -1.5754371 -1.8345013 -1.8479682000000002 -1.7746863999999998 -2.0595725 -2.179838
-1.5093921000000001 -1.7489948 -1.691137 -1.5754371 -1.8345013 -1.8479682000000002 -1.7746863999999998 -2.0595725 -2.179838 -2.021338
-1.7489948 -1.691137 -1.5754371 -1.8345013 -1.8479682000000002 -1.7746863999999998 -2.0595725 -2.179838 -2.021338 -1.7997254
-1.691137 -1.5754371 -1.8345013 -1.8479682000000002 -1.7746863999999998 -2.0595725 -2.179838 -2.021338 -1.7997254 -1.5894694999999999
-1.5754371 -1.8345013 -1.8479682000000002 -1.7746863999999998 -2.0595725 -2.179838 -2.021338 -1.7997254 -1.5894694999999999 -1.4506705
-1.8345013 -1.8479682000000002 -1.7746863999999998 -2.0595725 -2.179838 -2.021338 -1.7997254 -1.5894694999999999 -1.4506705 -1.2929073
-1.8479682000000002 -1.7746863999999998 -2.0595725 -2.179838 -2.021338 -1.7997254 -1.5894694999999999 -1.4506705 -1.2929073 -1.0361691
-1.7746863999999998 -2.0595725 -2.179838 -2.021338 -1.7997254 -1.5894694999999999 -1.4506705 -1.2929073 -1.0361691 -0.72906394
-2.0595725 -2.179838 -2.021338 -1.7997254 -1.5894694999999999 -1.4506705 -1.2929073 -1.0361691 -0.72906394 -0.41531947
-2.179838 -2.021338 -1.7997254 -1.5894694999999999 -1.4506705 -1.2929073 -1.0361691 -0.72906394 -0.41531947 -0.20284251
-2.021338 -1.7997254 -1.5894694999999999 -1.4506705 -1.2929073 -1.0361691 -0.72906394 -0.41531947 -0.20284251 0.00030511646000000003
-1.7997254 -1.5894694999999999 -1.4506705 -1.2929073 -1.0361691 -0.72906394 -0.41531947 -0.20284251 0.00030511646000000003 0.21511179
-1.5894694999999999 -1.4506705 -1.2929073 -1.0361691 -0.72906394 -0.41531947 -0.20284251 0.00030511646000000003 0.21511179 0.2955633
-1.4506705 -1.2929073 -1.0361691 -0.72906394 -0.41531947 -0.20284251 0.00030511646000000003 0.21511179 0.2955633 0.40503821
-1.2929073 -1.0361691 -0.72906394 -0.41531947 -0.20284251 0.00030511646000000003 0.21511179 0.2955633 0.40503821 0.45540189
-1.0361691 -0.72906394 -0.41531947 -0.20284251 0.00030511646000000003 0.21511179 0.2955633 0.40503821 0.45540189 0.54207991
-0.72906394 -0.41531947 -0.20284251 0.00030511646000000003 0.21511179 0.2955633 0.40503821 0.45540189 0.54207991 0.73676461
-0.41531947 -0.20284251 0.00030511646000000003 0.21511179 0.2955633 0.40503821 0.45540189 0.54207991 0.73676461 0.67149855
-0.20284251 0.00030511646000000003 0.21511179 0.2955633 0.40503821 0.45540189 0.54207991 0.73676461 0.67149855 0.63718316
0.00030511646000000003 0.21511179 0.2955633 0.40503821 0.45540189 0.54207991 0.73676461 0.67149855 0.63718316 0.77934611
0.21511179 0.2955633 0.40503821 0.45540189 0.54207991 0.73676461 0.67149855 0.63718316 0.77934611 0.67812924
0.2955633 0.40503821 0.45540189 0.54207991 0.73676461 0.67149855 0.63718316 0.77934611 0.67812924 0.55736698
0.40503821 0.45540189 0.54207991 0.73676461 0.67149855 0.63718316 0.77934611 0.67812924 0.55736698 0.63462258
0.45540189 0.54207991 0.73676461 0.67149855 0.63718316 0.77934611 0.67812924 0.55736698 0.63462258 0.57043994
0.54207991 0.73676461 0.67149855 0.63718316 0.77934611 0.67812924 0.55736698 0.63462258 0.57043994 0.46618602
0.73676461 0.67149855 0.63718316 0.77934611 0.67812924 0.55736698 0.63462258 0.57043994 0.46618602 0.48409927
0.67149855 0.63718316 0.77934611 0.67812924 0.55736698 0.63462258 0.57043994 0.46618602 0.48409927 0.46811174
0.63718316 0.77934611 0.67812924 0.55736698 0.63462258 0.57043994 0.46618602 0.48409927 0.46811174 0.43414845
0.77934611 0.67812924 0.55736698 0.63462258 0.57043994 0.46618602 0.48409927 0.46811174 0.43414845 0.43444022
0.67812924 0.55736698 0.63462258 0.57043994 0.46618602 0.48409927 0.46811174 0.43414845 0.43444022 0.46884501
0.55736698 0.63462258 0.57043994 0.46618602 0.48409927 0.46811174 0.43414845 0.43444022 0.46884501 0.43787545
0.63462258 0.57043994 0.46618602 0.48409927 0.46811174 0.43414845 0.43444022 0.46884501 0.43787545 0.46474394
0.57043994 0.46618602 0.48409927 0.46811174 0.43414845 0.43444022 0.46884501 0.43787545 0.46474394 0.52942319
0.46618602 0.48409927 0.46811174 0.43414845 0.43444022 0.46884501 0.43787545 0.46474394 0.52942319 0.50502137
0.48409927 0.46811174 0.43414845 0.43444022 0.46884501 0.43787545 0.46474394 0.52942319 0.50502137 0.59580496
0.46811174 0.43414845 0.43444022 0.46884501 0.43787545 0.46474394 0.52942319 0.50502137 0.59580496 0.60665388
0.43414845 0.43444022 0.46884501 0.43787545 0.46474394 0.52942319 0.50502137 0.59580496 0.60665388 0.57833233
0.43444022 0.46884501 0.43787545 0.46474394 0.52942319 0.50502137 0.59580496 0.60665388 0.57833233 0.65745667
0.46884501 0.43787545 0.46474394 0.52942319 0.50502137 0.59580496 0.60665388 0.57833233 0.65745667 0.66066382
0.43787545 0.46474394 0.52942319 0.50502137 0.59580496 0.60665388 0.57833233 0.65745667 0.66066382 0.80420603
0.46474394 0.52942319 0.50502137 0.59580496 0.60665388 0.57833233 0.65745667 0.66066382 0.80420603 0.95017385
0.52942319 0.50502137 0.59580496 0.60665388 0.57833233 0.65745667 0.66066382 0.80420603 0.95017385 0.86632106
0.50502137 0.59580496 0.60665388 0.57833233 0.65745667 0.66066382 0.80420603 0.95017385 0.86632106 1.0014973
0.59580496 0.60665388 0.57833233 0.65745667 0.66066382 0.80420603 0.95017385 0.86632106 1.0014973 1.2667761
0.60665388 0.57833233 0.65745667 0.66066382 0.80420603 0.95017385 0.86632106 1.0014973 1.2667761 1.261269
0.57833233 0.65745667 0.66066382 0.80420603 0.95017385 0.86632106 1.0014973 1.2667761 1.261269 1.2621858
0.65745667 0.66066382 0.80420603 0.95017385 0.86632106 1.0014973 1.2667761 1.261269 1.2621858 1.1996334
0.66066382 0.80420603 0.95017385 0.86632106 1.0014973 1.2667761 1.261269 1.2621858 1.1996334 0.94305876
0.80420603 0.95017385 0.86632106 1.0014973 1.2667761 1.261269 1.2621858 1.1996334 0.94305876 0.83352393
0.95017385 0.86632106 1.0014973 1.2667761 1.261269 1.2621858 1.1996334 0.94305876 0.83352393 0.6915735
0.86632106 1.0014973 1.2667761 1.261269 1.2621858 1.1996334 0.94305876 0.83352393 0.6915735 0.41830842
1.0014973 1.2667761 1.261269 1.2621858 1.1996334 0.94305876 0.83352393 0.6915735 0.41830842 0.42601702
1.2667761 1.261269 1.2621858 1.1996334 0.94305876 0.83352393 0.6915735 0.41830842 0.42601702 0.57805773
1.261269 1.2621858 1.1996334 0.94305876 0.83352393 0.6915735 0.41830842 0.42601702 0.57805773 0.58022963
1.2621858 1.1996334 0.94305876 0.83352393 0.6915735 0.41830842 0.42601702 0.57805773 0.58022963 0.48245231
1.1996334 0.94305876 0.83352393 0.6915735 0.41830842 0.42601702 0.57805773 0.58022963 0.48245231 0.32556942
0.94305876 0.83352393 0.6915735 0.41830842 0.42601702 0.57805773 0.58022963 0.48245231 0.32556942 0.24799135
0.83352393 0.6915735 0.41830842 0.42601702 0.57805773 0.58022963 0.48245231 0.32556942 0.24799135 0.18412739
0.6915735 0.41830842 0.42601702 0.57805773 0.58022963 0.48245231 0.32556942 0.24799135 0.18412739 0.050357907
0.41830842 0.42601702 0.57805773 0.58022963 0.48245231 0.32556942 0.24799135 0.18412739 0.050357907 0.24198843
0.42601702 0.57805773 0.58022963 0.48245231 0.32556942 0.24799135 0.18412739 0.050357907 0.24198843 0.33145057
0.57805773 0.58022963 0.48245231 0.32556942 0.24799135 0.18412739 0.050357907 0.24198843 0.33145057 -0.12000610000000002
0.58022963 0.48245231 0.32556942 0.24799135 0.18412739 0.050357907 0.24198843 0.33145057 -0.12000610000000002 0.042422635
0.48245231 0.32556942 0.24799135 0.18412739 0.050357907 0.24198843 0.33145057 -0.12000610000000002 0.042422635 0.34329344
