0.073124179 0.77605406 2.181336 3.4403251000000004 2.1684748 0.49731547 -0.92428396 -1.4992268 -0.67932845 -0.54989193
0.77605406 2.181336 3.4403251000000004 2.1684748 0.49731547 -0.92428396 -1.4992268 -0.67932845 -0.54989193 -0.78725674
2.181336 3.4403251000000004 2.1684748 0.49731547 -0.92428396 -1.4992268 -0.67932845 -0.54989193 -0.78725674 -0.86524789
3.4403251000000004 2.1684748 0.49731547 -0.92428396 -1.4992268 -0.67932845 -0.54989193 -0.78725674 -0.86524789 -0.67281251
2.1684748 0.49731547 -0.92428396 -1.4992268 -0.67932845 -0.54989193 -0.78725674 -0.86524789 -0.67281251 -0.43837158
0.49731547 -0.92428396 -1.4992268 -0.67932845 -0.54989193 -0.78725674 -0.86524789 -0.67281251 -0.43837158 -0.75957456
-0.92428396 -1.4992268 -0.67932845 -0.54989193 -0.78725674 -0.86524789 -0.67281251 -0.43837158 -0.75957456 -1.2470789
-1.4992268 -0.67932845 -0.54989193 -0.78725674 -0.86524789 -0.67281251 -0.43837158 -0.75957456 -1.2470789 -0.76753457
-0.67932845 -0.54989193 -0.78725674 -0.86524789 -0.67281251 -0.43837158 -0.75957456 -1.2470789 -0.76753457 -0.90354932
-0.54989193 -0.78725674 -0.86524789 -0.67281251 -0.43837158 -0.75957456 -1.2470789 -0.76753457 -0.90354932 -1.19472
-0.78725674 -0.86524789 -0.67281251 -0.43837158 -0.75957456 -1.2470789 -0.76753457 -0.90354932 -1.19472 -1.121947
-0.86524789 -0.67281251 -0.43837158 -0.75957456 -1.2470789 -0.76753457 -0.90354932 -1.19472 -1.121947 -0.98355763
-0.67281251 -0.43837158 -0.75957456 -1.2470789 -0.76753457 -0.90354932 -1.19472 -1.121947 -0.98355763 -1.2439151000000002
-0.43837158 -0.75957456 -1.2470789 -0.76753457 -0.90354932 -1.19472 -1.121947 -0.98355763 -1.2439151000000002 -1.4228455
-0.75957456 -1.2470789 -0.76753457 -0.90354932 -1.19472 -1.121947 -0.98355763 -1.2439151000000002 -1.4228455 -1.2470051000000002
-1.2470789 -0.76753457 -0.90354932 -1.19472 -1.121947 -0.98355763 -1.2439151000000002 -1.4228455 -1.2470051000000002 -1.5611456
-0.76753457 -0.90354932 -1.19472 -1.121947 -0.98355763 -1.2439151000000002 -1.4228455 -1.2470051000000002 -1.5611456 -1.4887447
-0.90354932 -1.19472 -1.121947 -0.98355763 -1.2439151000000002 -1.4228455 -1.2470051000000002 -1.5611456 -1.4887447 -1.2420938
-1.19472 -1.121947 -0.98355763 -1.2439151000000002 -1.4228455 -1.2470051000000002 -1.5611456 -1.4887447 -1.2420938 -1.5224499
-1.121947 -0.98355763 -1.2439151000000002 -1.4228455 -1.2470051000000002 -1.5611456 -1.4887447 -1.2420938 -1.5224499 -1.9511948000000001
-0.98355763 -1.2439151000000002 -1.4228455 -1.2470051000000002 -1.5611456 -1.4887447 -1.2420938 -1.5224499 -1.9511948000000001 -1.881457
-1.2439151000000002 -1.4228455 -1.2470051000000002 -1.5611456 -1.4887447 -1.2420938 -1.5224499 -1.9511948000000001 -1.881457 -1.7514624
-1.4228455 -1.2470051000000002 -1.5611456 -1.4887447 -1.2420938 -1.5224499 -1.9511948000000001 -1.881457 -1.7514624 -1.8197548
-1.2470051000000002 -1.5611456 -1.4887447 -1.2420938 -1.5224499 -1.9511948000000001 -1.881457 -1.7514624 -1.8197548 -1.5629875
-1.5611456 -1.4887447 -1.2420938 -1.5224499 -1.9511948000000001 -1.881457 -1.7514624 -1.8197548 -1.5629875 -1.4381696000000002
-1.4887447 -1.2420938 -1.5224499 -1.9511948000000001 -1.881457 -1.7514624 -1.8197548 -1.5629875 -1.4381696000000002 -1.3597793
-1.2420938 -1.5224499 -1.9511948000000001 -1.881457 -1.7514624 -1.8197548 -1.5629875 -1.4381696000000002 -1.3597793 -0.81603422
-1.5224499 -1.9511948000000001 -1.881457 -1.7514624 -1.8197548 -1.5629875 -1.4381696000000002 -1.3597793 -0.81603422 -0.61959996
-1.9511948000000001 -1.881457 -1.7514624 -1.8197548 -1.5629875 -1.4381696000000002 -1.3597793 -0.81603422 -0.61959996 -0.48986109
-1.881457 -1.7514624 -1.8197548 -1.5629875 -1.4381696000000002 -1.3597793 -0.81603422 -0.61959996 -0.48986109 -0.15566953
-1.7514624 -1.8197548 -1.5629875 -1.4381696000000002 -1.3597793 -0.81603422 -0.61959996 -0.48986109 -0.15566953 0.11285306
-1.8197548 -1.5629875 -1.4381696000000002 -1.3597793 -0.81603422 -0.61959996 -0.48986109 -0.15566953 0.11285306 0.59185826
-1.5629875 -1.4381696000000002 -1.3597793 -0.81603422 -0.61959996 -0.48986109 -0.15566953 0.11285306 0.59185826 0.71814721
-1.4381696000000002 -1.3597793 -0.81603422 -0.61959996 -0.48986109 -0.15566953 0.11285306 0.59185826 0.71814721 0.65506268
-1.3597793 -0.81603422 -0.61959996 -0.48986109 -0.15566953 0.11285306 0.59185826 0.71814721 0.65506268 0.75182204
-0.81603422 -0.61959996 -0.48986109 -0.15566953 0.11285306 0.59185826 0.71814721 0.65506268 0.75182204 1.0983433999999999
-0.61959996 -0.48986109 -0.15566953 0.11285306 0.59185826 0.71814721 0.65506268 0.75182204 1.0983433999999999 1.2792478
-0.48986109 -0.15566953 0.11285306 0.59185826 0.71814721 0.65506268 0.75182204 1.0983433999999999 1.2792478 1.0563155
-0.15566953 0.11285306 0.59185826 0.71814721 0.65506268 0.75182204 1.0983433999999999 1.2792478 1.0563155 0.99464566
0.11285306 0.59185826 0.71814721 0.65506268 0.75182204 1.0983433999999999 1.2792478 1.0563155 0.99464566 1.1167
0.59185826 0.71814721 0.65506268 0.75182204 1.0983433999999999 1.2792478 1.0563155 0.99464566 1.1167 0.89990447
0.71814721 0.65506268 0.75182204 1.0983433999999999 1.2792478 1.0563155 0.99464566 1.1167 0.89990447 0.75355753
0.65506268 0.75182204 1.0983433999999999 1.2792478 1.0563155 0.99464566 1.1167 0.89990447 0.75355753 0.93003195
0.75182204 1.0983433999999999 1.2792478 1.0563155 0.99464566 1.1167 0.89990447 0.75355753 0.93003195 0.9151703999999999
1.0983433999999999 1.2792478 1.0563155 0.99464566 1.1167 0.89990447 0.75355753 0.93003195 0.9151703999999999 0.77815786
1.2792478 1.0563155 0.99464566 1.1167 0.89990447 0.75355753 0.93003195 0.9151703999999999 0.77815786 0.75508833
1.0563155 0.99464566 1.1167 0.89990447 0.75355753 0.93003195 0.9151703999999999 0.77815786 0.75508833 0.76912022
0.99464566 1.1167 0.89990447 0.75355753 0.93003195 0.9151703999999999 0.77815786 0.75508833 0.76912022 0.79651893
1.1167 0.89990447 0.75355753 0.93003195 0.9151703999999999 0.77815786 0.75508833 0.76912022 0.79651893 0.83954318
0.89990447 0.75355753 0.93003195 0.9151703999999999 0.77815786 0.75508833 0.76912022 0.79651893 0.83954318 0.76156696
0.75355753 0.93003195 0.9151703999999999 0.77815786 0.75508833 0.76912022 0.79651893 0.83954318 0.76156696 0.62995935
0.93003195 0.9151703999999999 0.77815786 0.75508833 0.76912022 0.79651893 0.83954318 0.76156696 0.62995935 0.94179343
0.9151703999999999 0.77815786 0.75508833 0.76912022 0.79651893 0.83954318 0.76156696 0.62995935 0.94179343 0.5148406
0.77815786 0.75508833 0.76912022 0.79651893 0.83954318 0.76156696 0.62995935 0.94179343 0.5148406 0.57168814
0.75508833 0.76912022 0.79651893 0.83954318 0.76156696 0.62995935 0.94179343 0.5148406 0.57168814 0.84011187
0.76912022 0.79651893 0.83954318 0.76156696 0.62995935 0.94179343 0.5148406 0.57168814 0.84011187 0.5736698
0.79651893 0.83954318 0.76156696 0.62995935 0.94179343 0.5148406 0.57168814 0.84011187 0.5736698 0.71731607
0.83954318 0.76156696 0.62995935 0.94179343 0.5148406 0.57168814 0.84011187 0.5736698 0.71731607 0.81150426
0.76156696 0.62995935 0.94179343 0.5148406 0.57168814 0.84011187 0.5736698 0.71731607 0.81150426 0.63731832
0.62995935 0.94179343 0.5148406 0.57168814 0.84011187 0.5736698 0.71731607 0.81150426 0.63731832 0.22063763
0.94179343 0.5148406 0.57168814 0.84011187 0.5736698 0.71731607 0.81150426 0.63731832 0.22063763 0.68522624
0.5148406 0.57168814 0.84011187 0.5736698 0.71731607 0.81150426 0.63731832 0.22063763 0.68522624 0.52607755
0.57168814 0.84011187 0.5736698 0.71731607 0.81150426 0.63731832 0.22063763 0.68522624 0.52607755 0.44106115
0.84011187 0.5736698 0.71731607 0.81150426 0.63731832 0.22063763 0.68522624 0.52607755 0.44106115 0.32928138
0.5736698 0.71731607 0.81150426 0.63731832 0.22063763 0.68522624 0.52607755 0.44106115 0.32928138 0.60522125
0.71731607 0.81150426 0.63731832 0.22063763 0.68522624 0.52607755 0.44106115 0.32928138 0.60522125 0.99376719
0.81150426 0.63731832 0.22063763 0.68522624 0.52607755 0.44106115 0.32928138 0.60522125 0.99376719 0.83343942
0.63731832 0.22063763 0.68522624 0.52607755 0.44106115 0.32928138 0.60522125 0.99376719 0.83343942 0.74053978
0.22063763 0.68522624 0.52607755 0.44106115 0.32928138 0.60522125 0.99376719 0.83343942 0.74053978 0.61812138
0.68522624 0.52607755 0.44106115 0.32928138 0.60522125 0.99376719 0.83343942 0.74053978 0.61812138 0.62578752
0.52607755 0.44106115 0.32928138 0.60522125 0.99376719 0.83343942 0.74053978 0.61812138 0.62578752 0.46864555
0.44106115 0.32928138 0.60522125 0.99376719 0.83343942 0.74053978 0.61812138 0.62578752 0.46864555 0.059755354000000004
0.32928138 0.60522125 0.99376719 0.83343942 0.74053978 0.61812138 0.62578752 0.46864555 0.059755354000000004 0.09698164699999999
0.60522125 0.99376719 0.83343942 0.74053978 0.61812138 0.62578752 0.46864555 0.059755354000000004 0.09698164699999999 0.19685754
0.99376719 0.83343942 0.74053978 0.61812138 0.62578752 0.46864555 0.059755354000000004 0.09698164699999999 0.19685754 -0.0021268498
0.83343942 0.74053978 0.61812138 0.62578752 0.46864555 0.059755354000000004 0.09698164699999999 0.19685754 -0.0021268498 -0.09438418300000001
0.74053978 0.61812138 0.62578752 0.46864555 0.059755354000000004 0.09698164699999999 0.19685754 -0.0021268498 -0.09438418300000001 -0.2534871
0.61812138 0.62578752 0.46864555 0.059755354000000004 0.09698164699999999 0.19685754 -0.0021268498 -0.09438418300000001 -0.2534871 -0.058934993
0.62578752 0.46864555 0.059755354000000004 0.09698164699999999 0.19685754 -0.0021268498 -0.09438418300000001 -0.2534871 -0.058934993 -0.13063785
0.46864555 0.059755354000000004 0.09698164699999999 0.19685754 -0.0021268498 -0.09438418300000001 -0.2534871 -0.058934993 -0.13063785 -0.34723477
0.059755354000000004 0.09698164699999999 0.19685754 -0.0021268498 -0.09438418300000001 -0.2534871 -0.058934993 -0.13063785 -0.34723477 -0.1779331
0.09698164699999999 0.19685754 -0.0021268498 -0.09438418300000001 -0.2534871 -0.058934993 -0.13063785 -0.34723477 -0.1779331 -0.060331578
0.19685754 -0.0021268498 -0.09438418300000001 -0.2534871 -0.058934993 -0.13063785 -0.34723477 -0.1779331 -0.060331578 -0.34763359
-0.0021268498 -0.09438418300000001 -0.2534871 -0.058934993 -0.13063785 -0.34723477 -0.1779331 -0.060331578 -0.34763359 -0.44744306
-0.09438418300000001 -0.2534871 -0.058934993 -0.13063785 -0.34723477 -0.1779331 -0.060331578 -0.34763359 -0.44744306 -0.06668896
-0.2534871 -0.058934993 -0.13063785 -0.34723477 -0.1779331 -0.060331578 -0.34763359 -0.44744306 -0.06668896 -0.17844792
-0.058934993 -0.13063785 -0.34723477 -0.1779331 -0.060331578 -0.34763359 -0.44744306 -0.06668896 -0.17844792 -0.25605159
