0.50205548 0.54216265 0.72238348 1.4288851999999999 2.1365157999999997 2.281149 1.9362737 1.46889 1.0088450999999998 0.38028224 -0.29677967 -0.51392868 -0.25564469 -0.10720254 -0.28782655 -0.41800901 -0.31916313 -0.2603787 -0.35035721 -0.50548599 -0.71088709 -0.82391982 -0.89970154 -1.1539496999999999 -1.2298306 -1.0440909999999999 -1.2020312 -1.3921948999999998 -1.1301083 -1.1798666000000002 -1.6492718000000002 -1.7265754 -1.6083703999999999 -1.6628022 -1.6506724 -1.6973093999999997 -1.8386968000000001 -1.8025962 -1.7805361000000002 -1.8251665000000001 -1.6447633000000002 -1.4238097 -1.3921948999999998 -1.3604156 -1.2001781 -0.91863234 -0.68591581 -0.66794346 -0.51272154 -0.10169069
0.54216265 0.72238348 1.4288851999999999 2.1365157999999997 2.281149 1.9362737 1.46889 1.0088450999999998 0.38028224 -0.29677967 -0.51392868 -0.25564469 -0.10720254 -0.28782655 -0.41800901 -0.31916313 -0.2603787 -0.35035721 -0.50548599 -0.71088709 -0.82391982 -0.89970154 -1.1539496999999999 -1.2298306 -1.0440909999999999 -1.2020312 -1.3921948999999998 -1.1301083 -1.1798666000000002 -1.6492718000000002 -1.7265754 -1.6083703999999999 -1.6628022 -1.6506724 -1.6973093999999997 -1.8386968000000001 -1.8025962 -1.7805361000000002 -1.8251665000000001 -1.6447633000000002 -1.4238097 -1.3921948999999998 -1.3604156 -1.2001781 -0.91863234 -0.68591581 -0.66794346 -0.51272154 -0.10169069 0.063954259
0.72238348 1.4288851999999999 2.1365157999999997 2.281149 1.9362737 1.46889 1.0088450999999998 0.38028224 -0.29677967 -0.51392868 -0.25564469 -0.10720254 -0.28782655 -0.41800901 -0.31916313 -0.2603787 -0.35035721 -0.50548599 -0.71088709 -0.82391982 -0.89970154 -1.1539496999999999 -1.2298306 -1.0440909999999999 -1.2020312 -1.3921948999999998 -1.1301083 -1.1798666000000002 -1.6492718000000002 -1.7265754 -1.6083703999999999 -1.6628022 -1.6506724 -1.6973093999999997 -1.8386968000000001 -1.8025962 -1.7805361000000002 -1.8251665000000001 -1.6447633000000002 -1.4238097 -1.3921948999999998 -1.3604156 -1.2001781 -0.91863234 -0.68591581 -0.66794346 -0.51272154 -0.10169069 0.063954259 0.082614311
1.4288851999999999 2.1365157999999997 2.281149 1.9362737 1.46889 1.0088450999999998 0.38028224 -0.29677967 -0.51392868 -0.25564469 -0.10720254 -0.28782655 -0.41800901 -0.31916313 -0.2603787 -0.35035721 -0.50548599 -0.71088709 -0.82391982 -0.89970154 -1.1539496999999999 -1.2298306 -1.0440909999999999 -1.2020312 -1.3921948999999998 -1.1301083 -1.1798666000000002 -1.6492718000000002 -1.7265754 -1.6083703999999999 -1.6628022 -1.6506724 -1.6973093999999997 -1.8386968000000001 -1.8025962 -1.7805361000000002 -1.8251665000000001 -1.6447633000000002 -1.4238097 -1.3921948999999998 -1.3604156 -1.2001781 -0.91863234 -0.68591581 -0.66794346 -0.51272154 -0.10169069 0.063954259 0.082614311 0.23760718
2.1365157999999997 2.281149 1.9362737 1.46889 1.0088450999999998 0.38028224 -0.29677967 -0.51392868 -0.25564469 -0.10720254 -0.28782655 -0.41800901 -0.31916313 -0.2603787 -0.35035721 -0.50548599 -0.71088709 -0.82391982 -0.89970154 -1.1539496999999999 -1.2298306 -1.0440909999999999 -1.2020312 -1.3921948999999998 -1.1301083 -1.1798666000000002 -1.6492718000000002 -1.7265754 -1.6083703999999999 -1.6628022 -1.6506724 -1.6973093999999997 -1.8386968000000001 -1.8025962 -1.7805361000000002 -1.8251665000000001 -1.6447633000000002 -1.4238097 -1.3921948999999998 -1.3604156 -1.2001781 -0.91863234 -0.68591581 -0.66794346 -0.51272154 -0.10169069 0.063954259 0.082614311 0.23760718 0.17479318
2.281149 1.9362737 1.46889 1.0088450999999998 0.38028224 -0.29677967 -0.51392868 -0.25564469 -0.10720254 -0.28782655 -0.41800901 -0.31916313 -0.2603787 -0.35035721 -0.50548599 -0.71088709 -0.82391982 -0.89970154 -1.1539496999999999 -1.2298306 -1.0440909999999999 -1.2020312 -1.3921948999999998 -1.1301083 -1.1798666000000002 -1.6492718000000002 -1.7265754 -1.6083703999999999 -1.6628022 -1.6506724 -1.6973093999999997 -1.8386968000000001 -1.8025962 -1.7805361000000002 -1.8251665000000001 -1.6447633000000002 -1.4238097 -1.3921948999999998 -1.3604156 -1.2001781 -0.91863234 -0.68591581 -0.66794346 -0.51272154 -0.10169069 0.063954259 0.082614311 0.23760718 0.17479318 0.12320539
1.9362737 1.46889 1.0088450999999998 0.38028224 -0.29677967 -0.51392868 -0.25564469 -0.10720254 -0.28782655 -0.41800901 -0.31916313 -0.2603787 -0.35035721 -0.50548599 -0.71088709 -0.82391982 -0.89970154 -1.1539496999999999 -1.2298306 -1.0440909999999999 -1.2020312 -1.3921948999999998 -1.1301083 -1.1798666000000002 -1.6492718000000002 -1.7265754 -1.6083703999999999 -1.6628022 -1.6506724 -1.6973093999999997 -1.8386968000000001 -1.8025962 -1.7805361000000002 -1.8251665000000001 -1.6447633000000002 -1.4238097 -1.3921948999999998 -1.3604156 -1.2001781 -0.91863234 -0.68591581 -0.66794346 -0.51272154 -0.10169069 0.063954259 0.082614311 0.23760718 0.17479318 0.12320539 0.5033942
1.46889 1.0088450999999998 0.38028224 -0.29677967 -0.51392868 -0.25564469 -0.10720254 -0.28782655 -0.41800901 -0.31916313 -0.2603787 -0.35035721 -0.50548599 -0.71088709 -0.82391982 -0.89970154 -1.1539496999999999 -1.2298306 -1.0440909999999999 -1.2020312 -1.3921948999999998 -1.1301083 -1.1798666000000002 -1.6492718000000002 -1.7265754 -1.6083703999999999 -1.6628022 -1.6506724 -1.6973093999999997 -1.8386968000000001 -1.8025962 -1.7805361000000002 -1.8251665000000001 -1.6447633000000002 -1.4238097 -1.3921948999999998 -1.3604156 -1.2001781 -0.91863234 -0.68591581 -0.66794346 -0.51272154 -0.10169069 0.063954259 0.082614311 0.23760718 0.17479318 0.12320539 0.5033942 0.6838702
1.0088450999999998 0.38028224 -0.29677967 -0.51392868 -0.25564469 -0.10720254 -0.28782655 -0.41800901 -0.31916313 -0.2603787 -0.35035721 -0.50548599 -0.71088709 -0.82391982 -0.89970154 -1.1539496999999999 -1.2298306 -1.0440909999999999 -1.2020312 -1.3921948999999998 -1.1301083 -1.1798666000000002 -1.6492718000000002 -1.7265754 -1.6083703999999999 -1.6628022 -1.6506724 -1.6973093999999997 -1.8386968000000001 -1.8025962 -1.7805361000000002 -1.8251665000000001 -1.6447633000000002 -1.4238097 -1.3921948999999998 -1.3604156 -1.2001781 -0.91863234 -0.68591581 -0.66794346 -0.51272154 -0.10169069 0.063954259 0.082614311 0.23760718 0.17479318 0.12320539 0.5033942 0.6838702 0.47499476
0.38028224 -0.29677967 -0.51392868 -0.25564469 -0.10720254 -0.28782655 -0.41800901 -0.31916313 -0.2603787 -0.35035721 -0.50548599 -0.71088709 -0.82391982 -0.89970154 -1.1539496999999999 -1.2298306 -1.0440909999999999 -1.2020312 -1.3921948999999998 -1.1301083 -1.1798666000000002 -1.6492718000000002 -1.7265754 -1.6083703999999999 -1.6628022 -1.6506724 -1.6973093999999997 -1.8386968000000001 -1.8025962 -1.7805361000000002 -1.8251665000000001 -1.6447633000000002 -1.4238097 -1.3921948999999998 -1.3604156 -1.2001781 -0.91863234 -0.68591581 -0.66794346 -0.51272154 -0.10169069 0.063954259 0.082614311 0.23760718 0.17479318 0.12320539 0.5033942 0.6838702 0.47499476 0.53279711
-0.29677967 -0.51392868 -0.25564469 -0.10720254 -0.28782655 -0.41800901 -0.31916313 -0.2603787 -0.35035721 -0.50548599 -0.71088709 -0.82391982 -0.89970154 -1.1539496999999999 -1.2298306 -1.0440909999999999 -1.2020312 -1.3921948999999998 -1.1301083 -1.1798666000000002 -1.6492718000000002 -1.7265754 -1.6083703999999999 -1.6628022 -1.6506724 -1.6973093999999997 -1.8386968000000001 -1.8025962 -1.7805361000000002 -1.8251665000000001 -1.6447633000000002 -1.4238097 -1.3921948999999998 -1.3604156 -1.2001781 -0.91863234 -0.68591581 -0.66794346 -0.51272154 -0.10169069 0.063954259 0.082614311 0.23760718 0.17479318 0.12320539 0.5033942 0.6838702 0.47499476 0.53279711 0.72354995
-0.51392868 -0.25564469 -0.10720254 -0.28782655 -0.41800901 -0.31916313 -0.2603787 -0.35035721 -0.50548599 -0.71088709 -0.82391982 -0.89970154 -1.1539496999999999 -1.2298306 -1.0440909999999999 -1.2020312 -1.3921948999999998 -1.1301083 -1.1798666000000002 -1.6492718000000002 -1.7265754 -1.6083703999999999 -1.6628022 -1.6506724 -1.6973093999999997 -1.8386968000000001 -1.8025962 -1.7805361000000002 -1.8251665000000001 -1.6447633000000002 -1.4238097 -1.3921948999999998 -1.3604156 -1.2001781 -0.91863234 -0.68591581 -0.66794346 -0.51272154 -0.10169069 0.063954259 0.082614311 0.23760718 0.17479318 0.12320539 0.5033942 0.6838702 0.47499476 0.53279711 0.72354995 0.6644198
-0.25564469 -0.10720254 -0.28782655 -0.41800901 -0.31916313 -0.2603787 -0.35035721 -0.50548599 -0.71088709 -0.82391982 -0.89970154 -1.1539496999999999 -1.2298306 -1.0440909999999999 -1.2020312 -1.3921948999999998 -1.1301083 -1.1798666000000002 -1.6492718000000002 -1.7265754 -1.6083703999999999 -1.6628022 -1.6506724 -1.6973093999999997 -1.8386968000000001 -1.8025962 -1.7805361000000002 -1.8251665000000001 -1.6447633000000002 -1.4238097 -1.3921948999999998 -1.3604156 -1.2001781 -0.91863234 -0.68591581 -0.66794346 -0.51272154 -0.10169069 0.063954259 0.082614311 0.23760718 0.17479318 0.12320539 0.5033942 0.6838702 0.47499476 0.53279711 0.72354995 0.6644198 0.64793559
-0.10720254 -0.28782655 -0.41800901 -0.31916313 -0.2603787 -0.35035721 -0.50548599 -0.71088709 -0.82391982 -0.89970154 -1.1539496999999999 -1.2298306 -1.0440909999999999 -1.2020312 -1.3921948999999998 -1.1301083 -1.1798666000000002 -1.6492718000000002 -1.7265754 -1.6083703999999999 -1.6628022 -1.6506724 -1.6973093999999997 -1.8386968000000001 -1.8025962 -1.7805361000000002 -1.8251665000000001 -1.6447633000000002 -1.4238097 -1.3921948999999998 -1.3604156 -1.2001781 -0.91863234 -0.68591581 -0.66794346 -0.51272154 -0.10169069 0.063954259 0.082614311 0.23760718 0.17479318 0.12320539 0.5033942 0.6838702 0.47499476 0.53279711 0.72354995 0.6644198 0.64793559 0.75705403
-0.28782655 -0.41800901 -0.31916313 -0.2603787 -0.35035721 -0.50548599 -0.71088709 -0.82391982 -0.89970154 -1.1539496999999999 -1.2298306 -1.0440909999999999 -1.2020312 -1.3921948999999998 -1.1301083 -1.1798666000000002 -1.6492718000000002 -1.7265754 -1.6083703999999999 -1.6628022 -1.6506724 -1.6973093999999997 -1.8386968000000001 -1.8025962 -1.7805361000000002 -1.8251665000000001 -1.6447633000000002 -1.4238097 -1.3921948999999998 -1.3604156 -1.2001781 -0.91863234 -0.68591581 -0.66794346 -0.51272154 -0.10169069 0.063954259 0.082614311 0.23760718 0.17479318 0.12320539 0.5033942 0.6838702 0.47499476 0.53279711 0.72354995 0.6644198 0.64793559 0.75705403 0.7320715999999999
-0.41800901 -0.31916313 -0.2603787 -0.35035721 -0.50548599 -0.71088709 -0.82391982 -0.89970154 -1.1539496999999999 -1.2298306 -1.0440909999999999 -1.2020312 -1.3921948999999998 -1.1301083 -1.1798666000000002 -1.6492718000000002 -1.7265754 -1.6083703999999999 -1.6628022 -1.6506724 -1.6973093999999997 -1.8386968000000001 -1.8025962 -1.7805361000000002 -1.8251665000000001 -1.6447633000000002 -1.4238097 -1.3921948999999998 -1.3604156 -1.2001781 -0.91863234 -0.68591581 -0.66794346 -0.51272154 -0.10169069 0.063954259 0.082614311 0.23760718 0.17479318 0.12320539 0.5033942 0.6838702 0.47499476 0.53279711 0.72354995 0.6644198 0.64793559 0.75705403 0.7320715999999999 0.62021499
-0.31916313 -0.2603787 -0.35035721 -0.50548599 -0.71088709 -0.82391982 -0.89970154 -1.1539496999999999 -1.2298306 -1.0440909999999999 -1.2020312 -1.3921948999999998 -1.1301083 -1.1798666000000002 -1.6492718000000002 -1.7265754 -1.6083703999999999 -1.6628022 -1.6506724 -1.6973093999999997 -1.8386968000000001 -1.8025962 -1.7805361000000002 -1.8251665000000001 -1.6447633000000002 -1.4238097 -1.3921948999999998 -1.3604156 -1.2001781 -0.91863234 -0.68591581 -0.66794346 -0.51272154 -0.10169069 0.063954259 0.082614311 0.23760718 0.17479318 0.12320539 0.5033942 0.6838702 0.47499476 0.53279711 0.72354995 0.6644198 0.64793559 0.75705403 0.7320715999999999 0.62021499 0.60629677
-0.2603787 -0.35035721 -0.50548599 -0.71088709 -0.82391982 -0.89970154 -1.1539496999999999 -1.2298306 -1.0440909999999999 -1.2020312 -1.3921948999999998 -1.1301083 -1.1798666000000002 -1.6492718000000002 -1.7265754 -1.6083703999999999 -1.6628022 -1.6506724 -1.6973093999999997 -1.8386968000000001 -1.8025962 -1.7805361000000002 -1.8251665000000001 -1.6447633000000002 -1.4238097 -1.3921948999999998 -1.3604156 -1.2001781 -0.91863234 -0.68591581 -0.66794346 -0.51272154 -0.10169069 0.063954259 0.082614311 0.23760718 0.17479318 0.12320539 0.5033942 0.6838702 0.47499476 0.53279711 0.72354995 0.6644198 0.64793559 0.75705403 0.7320715999999999 0.62021499 0.60629677 0.67795016
-0.35035721 -0.50548599 -0.71088709 -0.82391982 -0.89970154 -1.1539496999999999 -1.2298306 -1.0440909999999999 -1.2020312 -1.3921948999999998 -1.1301083 -1.1798666000000002 -1.6492718000000002 -1.7265754 -1.6083703999999999 -1.6628022 -1.6506724 -1.6973093999999997 -1.8386968000000001 -1.8025962 -1.7805361000000002 -1.8251665000000001 -1.6447633000000002 -1.4238097 -1.3921948999999998 -1.3604156 -1.2001781 -0.91863234 -0.68591581 -0.66794346 -0.51272154 -0.10169069 0.063954259 0.082614311 0.23760718 0.17479318 0.12320539 0.5033942 0.6838702 0.47499476 0.53279711 0.72354995 0.6644198 0.64793559 0.75705403 0.7320715999999999 0.62021499 0.60629677 0.67795016 0.68908363
-0.50548599 -0.71088709 -0.82391982 -0.89970154 -1.1539496999999999 -1.2298306 -1.0440909999999999 -1.2020312 -1.3921948999999998 -1.1301083 -1.1798666000000002 -1.6492718000000002 -1.7265754 -1.6083703999999999 -1.6628022 -1.6506724 -1.6973093999999997 -1.8386968000000001 -1.8025962 -1.7805361000000002 -1.8251665000000001 -1.6447633000000002 -1.4238097 -1.3921948999999998 -1.3604156 -1.2001781 -0.91863234 -0.68591581 -0.66794346 -0.51272154 -0.10169069 0.063954259 0.082614311 0.23760718 0.17479318 0.12320539 0.5033942 0.6838702 0.47499476 0.53279711 0.72354995 0.6644198 0.64793559 0.75705403 0.7320715999999999 0.62021499 0.60629677 0.67795016 0.68908363 0.59880728
-0.71088709 -0.82391982 -0.89970154 -1.1539496999999999 -1.2298306 -1.0440909999999999 -1.2020312 -1.3921948999999998 -1.1301083 -1.1798666000000002 -1.6492718000000002 -1.7265754 -1.6083703999999999 -1.6628022 -1.6506724 -1.6973093999999997 -1.8386968000000001 -1.8025962 -1.7805361000000002 -1.8251665000000001 -1.6447633000000002 -1.4238097 -1.3921948999999998 -1.3604156 -1.2001781 -0.91863234 -0.68591581 -0.66794346 -0.51272154 -0.10169069 0.063954259 0.082614311 0.23760718 0.17479318 0.12320539 0.5033942 0.6838702 0.47499476 0.53279711 0.72354995 0.6644198 0.64793559 0.75705403 0.7320715999999999 0.62021499 0.60629677 0.67795016 0.68908363 0.59880728 0.54264656
-0.82391982 -0.89970154 -1.1539496999999999 -1.2298306 -1.0440909999999999 -1.2020312 -1.3921948999999998 -1.1301083 -1.1798666000000002 -1.6492718000000002 -1.7265754 -1.6083703999999999 -1.6628022 -1.6506724 -1.6973093999999997 -1.8386968000000001 -1.8025962 -1.7805361000000002 -1.8251665000000001 -1.6447633000000002 -1.4238097 -1.3921948999999998 -1.3604156 -1.2001781 -0.91863234 -0.68591581 -0.66794346 -0.51272154 -0.10169069 0.063954259 0.082614311 0.23760718 0.17479318 0.12320539 0.5033942 0.6838702 0.47499476 0.53279711 0.72354995 0.6644198 0.64793559 0.75705403 0.7320715999999999 0.62021499 0.60629677 0.67795016 0.68908363 0.59880728 0.54264656 0.58180737
-0.89970154 -1.1539496999999999 -1.2298306 -1.0440909999999999 -1.2020312 -1.3921948999999998 -1.1301083 -1.1798666000000002 -1.6492718000000002 -1.7265754 -1.6083703999999999 -1.6628022 -1.6506724 -1.6973093999999997 -1.8386968000000001 -1.8025962 -1.7805361000000002 -1.8251665000000001 -1.6447633000000002 -1.4238097 -1.3921948999999998 -1.3604156 -1.2001781 -0.91863234 -0.68591581 -0.66794346 -0.51272154 -0.10169069 0.063954259 0.082614311 0.23760718 0.17479318 0.12320539 0.5033942 0.6838702 0.47499476 0.53279711 0.72354995 0.6644198 0.64793559 0.75705403 0.7320715999999999 0.62021499 0.60629677 0.67795016 0.68908363 0.59880728 0.54264656 0.58180737 0.63063068
-1.1539496999999999 -1.2298306 -1.0440909999999999 -1.2020312 -1.3921948999999998 -1.1301083 -1.1798666000000002 -1.6492718000000002 -1.7265754 -1.6083703999999999 -1.6628022 -1.6506724 -1.6973093999999997 -1.8386968000000001 -1.8025962 -1.7805361000000002 -1.8251665000000001 -1.6447633000000002 -1.4238097 -1.3921948999999998 -1.3604156 -1.2001781 -0.91863234 -0.68591581 -0.66794346 -0.51272154 -0.10169069 0.063954259 0.082614311 0.23760718 0.17479318 0.12320539 0.5033942 0.6838702 0.47499476 0.53279711 0.72354995 0.6644198 0.64793559 0.75705403 0.7320715999999999 0.62021499 0.60629677 0.67795016 0.68908363 0.59880728 0.54264656 0.58180737 0.63063068 0.6644198
-1.2298306 -1.0440909999999999 -1.2020312 -1.3921948999999998 -1.1301083 -1.1798666000000002 -1.6492718000000002 -1.7265754 -1.6083703999999999 -1.6628022 -1.6506724 -1.6973093999999997 -1.8386968000000001 -1.8025962 -1.7805361000000002 -1.8251665000000001 -1.6447633000000002 -1.4238097 -1.3921948999999998 -1.3604156 -1.2001781 -0.91863234 -0.68591581 -0.66794346 -0.51272154 -0.10169069 0.063954259 0.082614311 0.23760718 0.17479318 0.12320539 0.5033942 0.6838702 0.47499476 0.53279711 0.72354995 0.6644198 0.64793559 0.75705403 0.7320715999999999 0.62021499 0.60629677 0.67795016 0.68908363 0.59880728 0.54264656 0.58180737 0.63063068 0.6644198 0.6863178000000001
-1.0440909999999999 -1.2020312 -1.3921948999999998 -1.1301083 -1.1798666000000002 -1.6492718000000002 -1.7265754 -1.6083703999999999 -1.6628022 -1.6506724 -1.6973093999999997 -1.8386968000000001 -1.8025962 -1.7805361000000002 -1.8251665000000001 -1.6447633000000002 -1.4238097 -1.3921948999999998 -1.3604156 -1.2001781 -0.91863234 -0.68591581 -0.66794346 -0.51272154 -0.10169069 0.063954259 0.082614311 0.23760718 0.17479318 0.12320539 0.5033942 0.6838702 0.47499476 0.53279711 0.72354995 0.6644198 0.64793559 0.75705403 0.7320715999999999 0.62021499 0.60629677 0.67795016 0.68908363 0.59880728 0.54264656 0.58180737 0.63063068 0.6644198 0.6863178000000001 0.65738251
-1.2020312 -1.3921948999999998 -1.1301083 -1.1798666000000002 -1.6492718000000002 -1.7265754 -1.6083703999999999 -1.6628022 -1.6506724 -1.6973093999999997 -1.8386968000000001 -1.8025962 -1.7805361000000002 -1.8251665000000001 -1.6447633000000002 -1.4238097 -1.3921948999999998 -1.3604156 -1.2001781 -0.91863234 -0.68591581 -0.66794346 -0.51272154 -0.10169069 0.063954259 0.082614311 0.23760718 0.17479318 0.12320539 0.5033942 0.6838702 0.47499476 0.53279711 0.72354995 0.6644198 0.64793559 0.75705403 0.7320715999999999 0.62021499 0.60629677 0.67795016 0.68908363 0.59880728 0.54264656 0.58180737 0.63063068 0.6644198 0.6863178000000001 0.65738251 0.65088944
-1.3921948999999998 -1.1301083 -1.1798666000000002 -1.6492718000000002 -1.7265754 -1.6083703999999999 -1.6628022 -1.6506724 -1.6973093999999997 -1.8386968000000001 -1.8025962 -1.7805361000000002 -1.8251665000000001 -1.6447633000000002 -1.4238097 -1.3921948999999998 -1.3604156 -1.2001781 -0.91863234 -0.68591581 -0.66794346 -0.51272154 -0.10169069 0.063954259 0.082614311 0.23760718 0.17479318 0.12320539 0.5033942 0.6838702 0.47499476 0.53279711 0.72354995 0.6644198 0.64793559 0.75705403 0.7320715999999999 0.62021499 0.60629677 0.67795016 0.68908363 0.59880728 0.54264656 0.58180737 0.63063068 0.6644198 0.6863178000000001 0.65738251 0.65088944 0.72173837
-1.1301083 -1.1798666000000002 -1.6492718000000002 -1.7265754 -1.6083703999999999 -1.6628022 -1.6506724 -1.6973093999999997 -1.8386968000000001 -1.8025962 -1.7805361000000002 -1.8251665000000001 -1.6447633000000002 -1.4238097 -1.3921948999999998 -1.3604156 -1.2001781 -0.91863234 -0.68591581 -0.66794346 -0.51272154 -0.10169069 0.063954259 0.082614311 0.23760718 0.17479318 0.12320539 0.5033942 0.6838702 0.47499476 0.53279711 0.72354995 0.6644198 0.64793559 0.75705403 0.7320715999999999 0.62021499 0.60629677 0.67795016 0.68908363 0.59880728 0.54264656 0.58180737 0.63063068 0.6644198 0.6863178000000001 0.65738251 0.65088944 0.72173837 0.73970645
-1.1798666000000002 -1.6492718000000002 -1.7265754 -1.6083703999999999 -1.6628022 -1.6506724 -1.6973093999999997 -1.8386968000000001 -1.8025962 -1.7805361000000002 -1.8251665000000001 -1.6447633000000002 -1.4238097 -1.3921948999999998 -1.3604156 -1.2001781 -0.91863234 -0.68591581 -0.66794346 -0.51272154 -0.10169069 0.063954259 0.082614311 0.23760718 0.17479318 0.12320539 0.5033942 0.6838702 0.47499476 0.53279711 0.72354995 0.6644198 0.64793559 0.75705403 0.7320715999999999 0.62021499 0.60629677 0.67795016 0.68908363 0.59880728 0.54264656 0.58180737 0.63063068 0.6644198 0.6863178000000001 0.65738251 0.65088944 0.72173837 0.73970645 0.69148052
-1.6492718000000002 -1.7265754 -1.6083703999999999 -1.6628022 -1.6506724 -1.6973093999999997 -1.8386968000000001 -1.8025962 -1.7805361000000002 -1.8251665000000001 -1.6447633000000002 -1.4238097 -1.3921948999999998 -1.3604156 -1.2001781 -0.91863234 -0.68591581 -0.66794346 -0.51272154 -0.10169069 0.063954259 0.082614311 0.23760718 0.17479318 0.12320539 0.5033942 0.6838702 0.47499476 0.53279711 0.72354995 0.6644198 0.64793559 0.75705403 0.7320715999999999 0.62021499 0.60629677 0.67795016 0.68908363 0.59880728 0.54264656 0.58180737 0.63063068 0.6644198 0.6863178000000001 0.65738251 0.65088944 0.72173837 0.73970645 0.69148052 0.69522947
-1.7265754 -1.6083703999999999 -1.6628022 -1.6506724 -1.6973093999999997 -1.8386968000000001 -1.8025962 -1.7805361000000002 -1.8251665000000001 -1.6447633000000002 -1.4238097 -1.3921948999999998 -1.3604156 -1.2001781 -0.91863234 -0.68591581 -0.66794346 -0.51272154 -0.10169069 0.063954259 0.082614311 0.23760718 0.17479318 0.12320539 0.5033942 0.6838702 0.47499476 0.53279711 0.72354995 0.6644198 0.64793559 0.75705403 0.7320715999999999 0.62021499 0.60629677 0.67795016 0.68908363 0.59880728 0.54264656 0.58180737 0.63063068 0.6644198 0.6863178000000001 0.65738251 0.65088944 0.72173837 0.73970645 0.69148052 0.69522947 0.7501145
-1.6083703999999999 -1.6628022 -1.6506724 -1.6973093999999997 -1.8386968000000001 -1.8025962 -1.7805361000000002 -1.8251665000000001 -1.6447633000000002 -1.4238097 -1.3921948999999998 -1.3604156 -1.2001781 -0.91863234 -0.68591581 -0.66794346 -0.51272154 -0.10169069 0.063954259 0.082614311 0.23760718 0.17479318 0.12320539 0.5033942 0.6838702 0.47499476 0.53279711 0.72354995 0.6644198 0.64793559 0.75705403 0.7320715999999999 0.62021499 0.60629677 0.67795016 0.68908363 0.59880728 0.54264656 0.58180737 0.63063068 0.6644198 0.6863178000000001 0.65738251 0.65088944 0.72173837 0.73970645 0.69148052 0.69522947 0.7501145 0.85384485
-1.6628022 -1.6506724 -1.6973093999999997 -1.8386968000000001 -1.8025962 -1.7805361000000002 -1.8251665000000001 -1.6447633000000002 -1.4238097 -1.3921948999999998 -1.3604156 -1.2001781 -0.91863234 -0.68591581 -0.66794346 -0.51272154 -0.10169069 0.063954259 0.082614311 0.23760718 0.17479318 0.12320539 0.5033942 0.6838702 0.47499476 0.53279711 0.72354995 0.6644198 0.64793559 0.75705403 0.7320715999999999 0.62021499 0.60629677 0.67795016 0.68908363 0.59880728 0.54264656 0.58180737 0.63063068 0.6644198 0.6863178000000001 0.65738251 0.65088944 0.72173837 0.73970645 0.69148052 0.69522947 0.7501145 0.85384485 0.91601888
-1.6506724 -1.6973093999999997 -1.8386968000000001 -1.8025962 -1.7805361000000002 -1.8251665000000001 -1.6447633000000002 -1.4238097 -1.3921948999999998 -1.3604156 -1.2001781 -0.91863234 -0.68591581 -0.66794346 -0.51272154 -0.10169069 0.063954259 0.082614311 0.23760718 0.17479318 0.12320539 0.5033942 0.6838702 0.47499476 0.53279711 0.72354995 0.6644198 0.64793559 0.75705403 0.7320715999999999 0.62021499 0.60629677 0.67795016 0.68908363 0.59880728 0.54264656 0.58180737 0.63063068 0.6644198 0.6863178000000001 0.65738251 0.65088944 0.72173837 0.73970645 0.69148052 0.69522947 0.7501145 0.85384485 0.91601888 0.82774969
-1.6973093999999997 -1.8386968000000001 -1.8025962 -1.7805361000000002 -1.8251665000000001 -1.6447633000000002 -1.4238097 -1.3921948999999998 -1.3604156 -1.2001781 -0.91863234 -0.68591581 -0.66794346 -0.51272154 -0.10169069 0.063954259 0.082614311 0.23760718 0.17479318 0.12320539 0.5033942 0.6838702 0.47499476 0.53279711 0.72354995 0.6644198 0.64793559 0.75705403 0.7320715999999999 0.62021499 0.60629677 0.67795016 0.68908363 0.59880728 0.54264656 0.58180737 0.63063068 0.6644198 0.6863178000000001 0.65738251 0.65088944 0.72173837 0.73970645 0.69148052 0.69522947 0.7501145 0.85384485 0.91601888 0.82774969 0.88090557
-1.8386968000000001 -1.8025962 -1.7805361000000002 -1.8251665000000001 -1.6447633000000002 -1.4238097 -1.3921948999999998 -1.3604156 -1.2001781 -0.91863234 -0.68591581 -0.66794346 -0.51272154 -0.10169069 0.063954259 0.082614311 0.23760718 0.17479318 0.12320539 0.5033942 0.6838702 0.47499476 0.53279711 0.72354995 0.6644198 0.64793559 0.75705403 0.7320715999999999 0.62021499 0.60629677 0.67795016 0.68908363 0.59880728 0.54264656 0.58180737 0.63063068 0.6644198 0.6863178000000001 0.65738251 0.65088944 0.72173837 0.73970645 0.69148052 0.69522947 0.7501145 0.85384485 0.91601888 0.82774969 0.88090557 1.0888307
-1.8025962 -1.7805361000000002 -1.8251665000000001 -1.6447633000000002 -1.4238097 -1.3921948999999998 -1.3604156 -1.2001781 -0.91863234 -0.68591581 -0.66794346 -0.51272154 -0.10169069 0.063954259 0.082614311 0.23760718 0.17479318 0.12320539 0.5033942 0.6838702 0.47499476 0.53279711 0.72354995 0.6644198 0.64793559 0.75705403 0.7320715999999999 0.62021499 0.60629677 0.67795016 0.68908363 0.59880728 0.54264656 0.58180737 0.63063068 0.6644198 0.6863178000000001 0.65738251 0.65088944 0.72173837 0.73970645 0.69148052 0.69522947 0.7501145 0.85384485 0.91601888 0.82774969 0.88090557 1.0888307 0.93104294
-1.7805361000000002 -1.8251665000000001 -1.6447633000000002 -1.4238097 -1.3921948999999998 -1.3604156 -1.2001781 -0.91863234 -0.68591581 -0.66794346 -0.51272154 -0.10169069 0.063954259 0.082614311 0.23760718 0.17479318 0.12320539 0.5033942 0.6838702 0.47499476 0.53279711 0.72354995 0.6644198 0.64793559 0.75705403 0.7320715999999999 0.62021499 0.60629677 0.67795016 0.68908363 0.59880728 0.54264656 0.58180737 0.63063068 0.6644198 0.6863178000000001 0.65738251 0.65088944 0.72173837 0.73970645 0.69148052 0.69522947 0.7501145 0.85384485 0.91601888 0.82774969 0.88090557 1.0888307 0.93104294 0.61029836
-1.8251665000000001 -1.6447633000000002 -1.4238097 -1.3921948999999998 -1.3604156 -1.2001781 -0.91863234 -0.68591581 -0.66794346 -0.51272154 -0.10169069 0.063954259 0.082614311 0.23760718 0.17479318 0.12320539 0.5033942 0.6838702 0.47499476 0.53279711 0.72354995 0.6644198 0.64793559 0.75705403 0.7320715999999999 0.62021499 0.60629677 0.67795016 0.68908363 0.59880728 0.54264656 0.58180737 0.63063068 0.6644198 0.6863178000000001 0.65738251 0.65088944 0.72173837 0.73970645 0.69148052 0.69522947 0.7501145 0.85384485 0.91601888 0.82774969 0.88090557 1.0888307 0.93104294 0.61029836 0.63889427
-1.6447633000000002 -1.4238097 -1.3921948999999998 -1.3604156 -1.2001781 -0.91863234 -0.68591581 -0.66794346 -0.51272154 -0.10169069 0.063954259 0.082614311 0.23760718 0.17479318 0.12320539 0.5033942 0.6838702 0.47499476 0.53279711 0.72354995 0.6644198 0.64793559 0.75705403 0.7320715999999999 0.62021499 0.60629677 0.67795016 0.68908363 0.59880728 0.54264656 0.58180737 0.63063068 0.6644198 0.6863178000000001 0.65738251 0.65088944 0.72173837 0.73970645 0.69148052 0.69522947 0.7501145 0.85384485 0.91601888 0.82774969 0.88090557 1.0888307 0.93104294 0.61029836 0.63889427 0.68467857
-1.4238097 -1.3921948999999998 -1.3604156 -1.2001781 -0.91863234 -0.68591581 -0.66794346 -0.51272154 -0.10169069 0.063954259 0.082614311 0.23760718 0.17479318 0.12320539 0.5033942 0.6838702 0.47499476 0.53279711 0.72354995 0.6644198 0.64793559 0.75705403 0.7320715999999999 0.62021499 0.60629677 0.67795016 0.68908363 0.59880728 0.54264656 0.58180737 0.63063068 0.6644198 0.6863178000000001 0.65738251 0.65088944 0.72173837 0.73970645 0.69148052 0.69522947 0.7501145 0.85384485 0.91601888 0.82774969 0.88090557 1.0888307 0.93104294 0.61029836 0.63889427 0.68467857 0.58323764
-1.3921948999999998 -1.3604156 -1.2001781 -0.91863234 -0.68591581 -0.66794346 -0.51272154 -0.10169069 0.063954259 0.082614311 0.23760718 0.17479318 0.12320539 0.5033942 0.6838702 0.47499476 0.53279711 0.72354995 0.6644198 0.64793559 0.75705403 0.7320715999999999 0.62021499 0.60629677 0.67795016 0.68908363 0.59880728 0.54264656 0.58180737 0.63063068 0.6644198 0.6863178000000001 0.65738251 0.65088944 0.72173837 0.73970645 0.69148052 0.69522947 0.7501145 0.85384485 0.91601888 0.82774969 0.88090557 1.0888307 0.93104294 0.61029836 0.63889427 0.68467857 0.58323764 0.64052167
-1.3604156 -1.2001781 -0.91863234 -0.68591581 -0.66794346 -0.51272154 -0.10169069 0.063954259 0.082614311 0.23760718 0.17479318 0.12320539 0.5033942 0.6838702 0.47499476 0.53279711 0.72354995 0.6644198 0.64793559 0.75705403 0.7320715999999999 0.62021499 0.60629677 0.67795016 0.68908363 0.59880728 0.54264656 0.58180737 0.63063068 0.6644198 0.6863178000000001 0.65738251 0.65088944 0.72173837 0.73970645 0.69148052 0.69522947 0.7501145 0.85384485 0.91601888 0.82774969 0.88090557 1.0888307 0.93104294 0.61029836 0.63889427 0.68467857 0.58323764 0.64052167 0.70858515
-1.2001781 -0.91863234 -0.68591581 -0.66794346 -0.51272154 -0.10169069 0.063954259 0.082614311 0.23760718 0.17479318 0.12320539 0.5033942 0.6838702 0.47499476 0.53279711 0.72354995 0.6644198 0.64793559 0.75705403 0.7320715999999999 0.62021499 0.60629677 0.67795016 0.68908363 0.59880728 0.54264656 0.58180737 0.63063068 0.6644198 0.6863178000000001 0.65738251 0.65088944 0.72173837 0.73970645 0.69148052 0.69522947 0.7501145 0.85384485 0.91601888 0.82774969 0.88090557 1.0888307 0.93104294 0.61029836 0.63889427 0.68467857 0.58323764 0.64052167 0.70858515 0.70501088
-0.91863234 -0.68591581 -0.66794346 -0.51272154 -0.10169069 0.063954259 0.082614311 0.23760718 0.17479318 0.12320539 0.5033942 0.6838702 0.47499476 0.53279711 0.72354995 0.6644198 0.64793559 0.75705403 0.7320715999999999 0.62021499 0.60629677 0.67795016 0.68908363 0.59880728 0.54264656 0.58180737 0.63063068 0.6644198 0.6863178000000001 0.65738251 0.65088944 0.72173837 0.73970645 0.69148052 0.69522947 0.7501145 0.85384485 0.91601888 0.82774969 0.88090557 1.0888307 0.93104294 0.61029836 0.63889427 0.68467857 0.58323764 0.64052167 0.70858515 0.70501088 0.71381545
-0.68591581 -0.66794346 -0.51272154 -0.10169069 0.063954259 0.082614311 0.23760718 0.17479318 0.12320539 0.5033942 0.6838702 0.47499476 0.53279711 0.72354995 0.6644198 0.64793559 0.75705403 0.7320715999999999 0.62021499 0.60629677 0.67795016 0.68908363 0.59880728 0.54264656 0.58180737 0.63063068 0.6644198 0.6863178000000001 0.65738251 0.65088944 0.72173837 0.73970645 0.69148052 0.69522947 0.7501145 0.85384485 0.91601888 0.82774969 0.88090557 1.0888307 0.93104294 0.61029836 0.63889427 0.68467857 0.58323764 0.64052167 0.70858515 0.70501088 0.71381545 0.43376464
