-0.70630453 -0.22618127 0.21619952 -0.31772657 -0.64897192 -1.2193491 -1.5242950000000002 -1.5080601 -1.5508989 -1.6004537 -1.6891668000000002 -1.3953936000000002 -1.4708313 -1.5817696 -1.3080662 -1.3220377 -1.3201542 -1.3945806 -1.2384409 -1.3179835 -1.4283442 -1.3303188 -1.3595008 -1.3505409 -1.4492425 -1.4248941000000002 -1.2990896 -1.1066066 -0.97070858 -0.78746971 -0.40474516 -0.23162907 -0.067758632 0.14492215 0.42255456 0.53402642 0.35755296 0.52821483 0.4617568 0.36351216 0.313566 -0.023153427999999997 0.2423185 -0.0023966644 0.0079621215 0.025180826 -0.046041074 0.31519173 0.21896092 0.30766391
-0.22618127 0.21619952 -0.31772657 -0.64897192 -1.2193491 -1.5242950000000002 -1.5080601 -1.5508989 -1.6004537 -1.6891668000000002 -1.3953936000000002 -1.4708313 -1.5817696 -1.3080662 -1.3220377 -1.3201542 -1.3945806 -1.2384409 -1.3179835 -1.4283442 -1.3303188 -1.3595008 -1.3505409 -1.4492425 -1.4248941000000002 -1.2990896 -1.1066066 -0.97070858 -0.78746971 -0.40474516 -0.23162907 -0.067758632 0.14492215 0.42255456 0.53402642 0.35755296 0.52821483 0.4617568 0.36351216 0.313566 -0.023153427999999997 0.2423185 -0.0023966644 0.0079621215 0.025180826 -0.046041074 0.31519173 0.21896092 0.30766391 0.53138597
0.21619952 -0.31772657 -0.64897192 -1.2193491 -1.5242950000000002 -1.5080601 -1.5508989 -1.6004537 -1.6891668000000002 -1.3953936000000002 -1.4708313 -1.5817696 -1.3080662 -1.3220377 -1.3201542 -1.3945806 -1.2384409 -1.3179835 -1.4283442 -1.3303188 -1.3595008 -1.3505409 -1.4492425 -1.4248941000000002 -1.2990896 -1.1066066 -0.97070858 -0.78746971 -0.40474516 -0.23162907 -0.067758632 0.14492215 0.42255456 0.53402642 0.35755296 0.52821483 0.4617568 0.36351216 0.313566 -0.023153427999999997 0.2423185 -0.0023966644 0.0079621215 0.025180826 -0.046041074 0.31519173 0.21896092 0.30766391 0.53138597 0.41760631
-0.31772657 -0.64897192 -1.2193491 -1.5242950000000002 -1.5080601 -1.5508989 -1.6004537 -1.6891668000000002 -1.3953936000000002 -1.4708313 -1.5817696 -1.3080662 -1.3220377 -1.3201542 -1.3945806 -1.2384409 -1.3179835 -1.4283442 -1.3303188 -1.3595008 -1.3505409 -1.4492425 -1.4248941000000002 -1.2990896 -1.1066066 -0.97070858 -0.78746971 -0.40474516 -0.23162907 -0.067758632 0.14492215 0.42255456 0.53402642 0.35755296 0.52821483 0.4617568 0.36351216 0.313566 -0.023153427999999997 0.2423185 -0.0023966644 0.0079621215 0.025180826 -0.046041074 0.31519173 0.21896092 0.30766391 0.53138597 0.41760631 0.48482066
-0.64897192 -1.2193491 -1.5242950000000002 -1.5080601 -1.5508989 -1.6004537 -1.6891668000000002 -1.3953936000000002 -1.4708313 -1.5817696 -1.3080662 -1.3220377 -1.3201542 -1.3945806 -1.2384409 -1.3179835 -1.4283442 -1.3303188 -1.3595008 -1.3505409 -1.4492425 -1.4248941000000002 -1.2990896 -1.1066066 -0.97070858 -0.78746971 -0.40474516 -0.23162907 -0.067758632 0.14492215 0.42255456 0.53402642 0.35755296 0.52821483 0.4617568 0.36351216 0.313566 -0.023153427999999997 0.2423185 -0.0023966644 0.0079621215 0.025180826 -0.046041074 0.31519173 0.21896092 0.30766391 0.53138597 0.41760631 0.48482066 0.56905186
-1.2193491 -1.5242950000000002 -1.5080601 -1.5508989 -1.6004537 -1.6891668000000002 -1.3953936000000002 -1.4708313 -1.5817696 -1.3080662 -1.3220377 -1.3201542 -1.3945806 -1.2384409 -1.3179835 -1.4283442 -1.3303188 -1.3595008 -1.3505409 -1.4492425 -1.4248941000000002 -1.2990896 -1.1066066 -0.97070858 -0.78746971 -0.40474516 -0.23162907 -0.067758632 0.14492215 0.42255456 0.53402642 0.35755296 0.52821483 0.4617568 0.36351216 0.313566 -0.023153427999999997 0.2423185 -0.0023966644 0.0079621215 0.025180826 -0.046041074 0.31519173 0.21896092 0.30766391 0.53138597 0.41760631 0.48482066 0.56905186 0.70470753
-1.5242950000000002 -1.5080601 -1.5508989 -1.6004537 -1.6891668000000002 -1.3953936000000002 -1.4708313 -1.5817696 -1.3080662 -1.3220377 -1.3201542 -1.3945806 -1.2384409 -1.3179835 -1.4283442 -1.3303188 -1.3595008 -1.3505409 -1.4492425 -1.4248941000000002 -1.2990896 -1.1066066 -0.97070858 -0.78746971 -0.40474516 -0.23162907 -0.067758632 0.14492215 0.42255456 0.53402642 0.35755296 0.52821483 0.4617568 0.36351216 0.313566 -0.023153427999999997 0.2423185 -0.0023966644 0.0079621215 0.025180826 -0.046041074 0.31519173 0.21896092 0.30766391 0.53138597 0.41760631 0.48482066 0.56905186 0.70470753 0.67666848
-1.5080601 -1.5508989 -1.6004537 -1.6891668000000002 -1.3953936000000002 -1.4708313 -1.5817696 -1.3080662 -1.3220377 -1.3201542 -1.3945806 -1.2384409 -1.3179835 -1.4283442 -1.3303188 -1.3595008 -1.3505409 -1.4492425 -1.4248941000000002 -1.2990896 -1.1066066 -0.97070858 -0.78746971 -0.40474516 -0.23162907 -0.067758632 0.14492215 0.42255456 0.53402642 0.35755296 0.52821483 0.4617568 0.36351216 0.313566 -0.023153427999999997 0.2423185 -0.0023966644 0.0079621215 0.025180826 -0.046041074 0.31519173 0.21896092 0.30766391 0.53138597 0.41760631 0.48482066 0.56905186 0.70470753 0.67666848 0.63186926
-1.5508989 -1.6004537 -1.6891668000000002 -1.3953936000000002 -1.4708313 -1.5817696 -1.3080662 -1.3220377 -1.3201542 -1.3945806 -1.2384409 -1.3179835 -1.4283442 -1.3303188 -1.3595008 -1.3505409 -1.4492425 -1.4248941000000002 -1.2990896 -1.1066066 -0.97070858 -0.78746971 -0.40474516 -0.23162907 -0.067758632 0.14492215 0.42255456 0.53402642 0.35755296 0.52821483 0.4617568 0.36351216 0.313566 -0.023153427999999997 0.2423185 -0.0023966644 0.0079621215 0.025180826 -0.046041074 0.31519173 0.21896092 0.30766391 0.53138597 0.41760631 0.48482066 0.56905186 0.70470753 0.67666848 0.63186926 0.80665436
-1.6004537 -1.6891668000000002 -1.3953936000000002 -1.4708313 -1.5817696 -1.3080662 -1.3220377 -1.3201542 -1.3945806 -1.2384409 -1.3179835 -1.4283442 -1.3303188 -1.3595008 -1.3505409 -1.4492425 -1.4248941000000002 -1.2990896 -1.1066066 -0.97070858 -0.78746971 -0.40474516 -0.23162907 -0.067758632 0.14492215 0.42255456 0.53402642 0.35755296 0.52821483 0.4617568 0.36351216 0.313566 -0.023153427999999997 0.2423185 -0.0023966644 0.0079621215 0.025180826 -0.046041074 0.31519173 0.21896092 0.30766391 0.53138597 0.41760631 0.48482066 0.56905186 0.70470753 0.67666848 0.63186926 0.80665436 0.67985002
-1.6891668000000002 -1.3953936000000002 -1.4708313 -1.5817696 -1.3080662 -1.3220377 -1.3201542 -1.3945806 -1.2384409 -1.3179835 -1.4283442 -1.3303188 -1.3595008 -1.3505409 -1.4492425 -1.4248941000000002 -1.2990896 -1.1066066 -0.97070858 -0.78746971 -0.40474516 -0.23162907 -0.067758632 0.14492215 0.42255456 0.53402642 0.35755296 0.52821483 0.4617568 0.36351216 0.313566 -0.023153427999999997 0.2423185 -0.0023966644 0.0079621215 0.025180826 -0.046041074 0.31519173 0.21896092 0.30766391 0.53138597 0.41760631 0.48482066 0.56905186 0.70470753 0.67666848 0.63186926 0.80665436 0.67985002 0.57379448
-1.3953936000000002 -1.4708313 -1.5817696 -1.3080662 -1.3220377 -1.3201542 -1.3945806 -1.2384409 -1.3179835 -1.4283442 -1.3303188 -1.3595008 -1.3505409 -1.4492425 -1.4248941000000002 -1.2990896 -1.1066066 -0.97070858 -0.78746971 -0.40474516 -0.23162907 -0.067758632 0.14492215 0.42255456 0.53402642 0.35755296 0.52821483 0.4617568 0.36351216 0.313566 -0.023153427999999997 0.2423185 -0.0023966644 0.0079621215 0.025180826 -0.046041074 0.31519173 0.21896092 0.30766391 0.53138597 0.41760631 0.48482066 0.56905186 0.70470753 0.67666848 0.63186926 0.80665436 0.67985002 0.57379448 0.69169559
-1.4708313 -1.5817696 -1.3080662 -1.3220377 -1.3201542 -1.3945806 -1.2384409 -1.3179835 -1.4283442 -1.3303188 -1.3595008 -1.3505409 -1.4492425 -1.4248941000000002 -1.2990896 -1.1066066 -0.97070858 -0.78746971 -0.40474516 -0.23162907 -0.067758632 0.14492215 0.42255456 0.53402642 0.35755296 0.52821483 0.4617568 0.36351216 0.313566 -0.023153427999999997 0.2423185 -0.0023966644 0.0079621215 0.025180826 -0.046041074 0.31519173 0.21896092 0.30766391 0.53138597 0.41760631 0.48482066 0.56905186 0.70470753 0.67666848 0.63186926 0.80665436 0.67985002 0.57379448 0.69169559 0.70951523
-1.5817696 -1.3080662 -1.3220377 -1.3201542 -1.3945806 -1.2384409 -1.3179835 -1.4283442 -1.3303188 -1.3595008 -1.3505409 -1.4492425 -1.4248941000000002 -1.2990896 -1.1066066 -0.97070858 -0.78746971 -0.40474516 -0.23162907 -0.067758632 0.14492215 0.42255456 0.53402642 0.35755296 0.52821483 0.4617568 0.36351216 0.313566 -0.023153427999999997 0.2423185 -0.0023966644 0.0079621215 0.025180826 -0.046041074 0.31519173 0.21896092 0.30766391 0.53138597 0.41760631 0.48482066 0.56905186 0.70470753 0.67666848 0.63186926 0.80665436 0.67985002 0.57379448 0.69169559 0.70951523 0.68260676
-1.3080662 -1.3220377 -1.3201542 -1.3945806 -1.2384409 -1.3179835 -1.4283442 -1.3303188 -1.3595008 -1.3505409 -1.4492425 -1.4248941000000002 -1.2990896 -1.1066066 -0.97070858 -0.78746971 -0.40474516 -0.23162907 -0.067758632 0.14492215 0.42255456 0.53402642 0.35755296 0.52821483 0.4617568 0.36351216 0.313566 -0.023153427999999997 0.2423185 -0.0023966644 0.0079621215 0.025180826 -0.046041074 0.31519173 0.21896092 0.30766391 0.53138597 0.41760631 0.48482066 0.56905186 0.70470753 0.67666848 0.63186926 0.80665436 0.67985002 0.57379448 0.69169559 0.70951523 0.68260676 0.60653853
-1.3220377 -1.3201542 -1.3945806 -1.2384409 -1.3179835 -1.4283442 -1.3303188 -1.3595008 -1.3505409 -1.4492425 -1.4248941000000002 -1.2990896 -1.1066066 -0.97070858 -0.78746971 -0.40474516 -0.23162907 -0.067758632 0.14492215 0.42255456 0.53402642 0.35755296 0.52821483 0.4617568 0.36351216 0.313566 -0.023153427999999997 0.2423185 -0.0023966644 0.0079621215 0.025180826 -0.046041074 0.31519173 0.21896092 0.30766391 0.53138597 0.41760631 0.48482066 0.56905186 0.70470753 0.67666848 0.63186926 0.80665436 0.67985002 0.57379448 0.69169559 0.70951523 0.68260676 0.60653853 0.62393644
-1.3201542 -1.3945806 -1.2384409 -1.3179835 -1.4283442 -1.3303188 -1.3595008 -1.3505409 -1.4492425 -1.4248941000000002 -1.2990896 -1.1066066 -0.97070858 -0.78746971 -0.40474516 -0.23162907 -0.067758632 0.14492215 0.42255456 0.53402642 0.35755296 0.52821483 0.4617568 0.36351216 0.313566 -0.023153427999999997 0.2423185 -0.0023966644 0.0079621215 0.025180826 -0.046041074 0.31519173 0.21896092 0.30766391 0.53138597 0.41760631 0.48482066 0.56905186 0.70470753 0.67666848 0.63186926 0.80665436 0.67985002 0.57379448 0.69169559 0.70951523 0.68260676 0.60653853 0.62393644 0.53698955
-1.3945806 -1.2384409 -1.3179835 -1.4283442 -1.3303188 -1.3595008 -1.3505409 -1.4492425 -1.4248941000000002 -1.2990896 -1.1066066 -0.97070858 -0.78746971 -0.40474516 -0.23162907 -0.067758632 0.14492215 0.42255456 0.53402642 0.35755296 0.52821483 0.4617568 0.36351216 0.313566 -0.023153427999999997 0.2423185 -0.0023966644 0.0079621215 0.025180826 -0.046041074 0.31519173 0.21896092 0.30766391 0.53138597 0.41760631 0.48482066 0.56905186 0.70470753 0.67666848 0.63186926 0.80665436 0.67985002 0.57379448 0.69169559 0.70951523 0.68260676 0.60653853 0.62393644 0.53698955 0.79352766
-1.2384409 -1.3179835 -1.4283442 -1.3303188 -1.3595008 -1.3505409 -1.4492425 -1.4248941000000002 -1.2990896 -1.1066066 -0.97070858 -0.78746971 -0.40474516 -0.23162907 -0.067758632 0.14492215 0.42255456 0.53402642 0.35755296 0.52821483 0.4617568 0.36351216 0.313566 -0.023153427999999997 0.2423185 -0.0023966644 0.0079621215 0.025180826 -0.046041074 0.31519173 0.21896092 0.30766391 0.53138597 0.41760631 0.48482066 0.56905186 0.70470753 0.67666848 0.63186926 0.80665436 0.67985002 0.57379448 0.69169559 0.70951523 0.68260676 0.60653853 0.62393644 0.53698955 0.79352766 1.1080892
-1.3179835 -1.4283442 -1.3303188 -1.3595008 -1.3505409 -1.4492425 -1.4248941000000002 -1.2990896 -1.1066066 -0.97070858 -0.78746971 -0.40474516 -0.23162907 -0.067758632 0.14492215 0.42255456 0.53402642 0.35755296 0.52821483 0.4617568 0.36351216 0.313566 -0.023153427999999997 0.2423185 -0.0023966644 0.0079621215 0.025180826 -0.046041074 0.31519173 0.21896092 0.30766391 0.53138597 0.41760631 0.48482066 0.56905186 0.70470753 0.67666848 0.63186926 0.80665436 0.67985002 0.57379448 0.69169559 0.70951523 0.68260676 0.60653853 0.62393644 0.53698955 0.79352766 1.1080892 1.0154766
-1.4283442 -1.3303188 -1.3595008 -1.3505409 -1.4492425 -1.4248941000000002 -1.2990896 -1.1066066 -0.97070858 -0.78746971 -0.40474516 -0.23162907 -0.067758632 0.14492215 0.42255456 0.53402642 0.35755296 0.52821483 0.4617568 0.36351216 0.313566 -0.023153427999999997 0.2423185 -0.0023966644 0.0079621215 0.025180826 -0.046041074 0.31519173 0.21896092 0.30766391 0.53138597 0.41760631 0.48482066 0.56905186 0.70470753 0.67666848 0.63186926 0.80665436 0.67985002 0.57379448 0.69169559 0.70951523 0.68260676 0.60653853 0.62393644 0.53698955 0.79352766 1.1080892 1.0154766 1.1737391000000001
-1.3303188 -1.3595008 -1.3505409 -1.4492425 -1.4248941000000002 -1.2990896 -1.1066066 -0.97070858 -0.78746971 -0.40474516 -0.23162907 -0.067758632 0.14492215 0.42255456 0.53402642 0.35755296 0.52821483 0.4617568 0.36351216 0.313566 -0.023153427999999997 0.2423185 -0.0023966644 0.0079621215 0.025180826 -0.046041074 0.31519173 0.21896092 0.30766391 0.53138597 0.41760631 0.48482066 0.56905186 0.70470753 0.67666848 0.63186926 0.80665436 0.67985002 0.57379448 0.69169559 0.70951523 0.68260676 0.60653853 0.62393644 0.53698955 0.79352766 1.1080892 1.0154766 1.1737391000000001 0.67925679
-1.3595008 -1.3505409 -1.4492425 -1.4248941000000002 -1.2990896 -1.1066066 -0.97070858 -0.78746971 -0.40474516 -0.23162907 -0.067758632 0.14492215 0.42255456 0.53402642 0.35755296 0.52821483 0.4617568 0.36351216 0.313566 -0.023153427999999997 0.2423185 -0.0023966644 0.0079621215 0.025180826 -0.046041074 0.31519173 0.21896092 0.30766391 0.53138597 0.41760631 0.48482066 0.56905186 0.70470753 0.67666848 0.63186926 0.80665436 0.67985002 0.57379448 0.69169559 0.70951523 0.68260676 0.60653853 0.62393644 0.53698955 0.79352766 1.1080892 1.0154766 1.1737391000000001 0.67925679 0.57059741
-1.3505409 -1.4492425 -1.4248941000000002 -1.2990896 -1.1066066 -0.97070858 -0.78746971 -0.40474516 -0.23162907 -0.067758632 0.14492215 0.42255456 0.53402642 0.35755296 0.52821483 0.4617568 0.36351216 0.313566 -0.023153427999999997 0.2423185 -0.0023966644 0.0079621215 0.025180826 -0.046041074 0.31519173 0.21896092 0.30766391 0.53138597 0.41760631 0.48482066 0.56905186 0.70470753 0.67666848 0.63186926 0.80665436 0.67985002 0.57379448 0.69169559 0.70951523 0.68260676 0.60653853 0.62393644 0.53698955 0.79352766 1.1080892 1.0154766 1.1737391000000001 0.67925679 0.57059741 0.48242833
-1.4492425 -1.4248941000000002 -1.2990896 -1.1066066 -0.97070858 -0.78746971 -0.40474516 -0.23162907 -0.067758632 0.14492215 0.42255456 0.53402642 0.35755296 0.52821483 0.4617568 0.36351216 0.313566 -0.023153427999999997 0.2423185 -0.0023966644 0.0079621215 0.025180826 -0.046041074 0.31519173 0.21896092 0.30766391 0.53138597 0.41760631 0.48482066 0.56905186 0.70470753 0.67666848 0.63186926 0.80665436 0.67985002 0.57379448 0.69169559 0.70951523 0.68260676 0.60653853 0.62393644 0.53698955 0.79352766 1.1080892 1.0154766 1.1737391000000001 0.67925679 0.57059741 0.48242833 0.33532385
-1.4248941000000002 -1.2990896 -1.1066066 -0.97070858 -0.78746971 -0.40474516 -0.23162907 -0.067758632 0.14492215 0.42255456 0.53402642 0.35755296 0.52821483 0.4617568 0.36351216 0.313566 -0.023153427999999997 0.2423185 -0.0023966644 0.0079621215 0.025180826 -0.046041074 0.31519173 0.21896092 0.30766391 0.53138597 0.41760631 0.48482066 0.56905186 0.70470753 0.67666848 0.63186926 0.80665436 0.67985002 0.57379448 0.69169559 0.70951523 0.68260676 0.60653853 0.62393644 0.53698955 0.79352766 1.1080892 1.0154766 1.1737391000000001 0.67925679 0.57059741 0.48242833 0.33532385 0.415497
-1.2990896 -1.1066066 -0.97070858 -0.78746971 -0.40474516 -0.23162907 -0.067758632 0.14492215 0.42255456 0.53402642 0.35755296 0.52821483 0.4617568 0.36351216 0.313566 -0.023153427999999997 0.2423185 -0.0023966644 0.0079621215 0.025180826 -0.046041074 0.31519173 0.21896092 0.30766391 0.53138597 0.41760631 0.48482066 0.56905186 0.70470753 0.67666848 0.63186926 0.80665436 0.67985002 0.57379448 0.69169559 0.70951523 0.68260676 0.60653853 0.62393644 0.53698955 0.79352766 1.1080892 1.0154766 1.1737391000000001 0.67925679 0.57059741 0.48242833 0.33532385 0.415497 0.26353051
-1.1066066 -0.97070858 -0.78746971 -0.40474516 -0.23162907 -0.067758632 0.14492215 0.42255456 0.53402642 0.35755296 0.52821483 0.4617568 0.36351216 0.313566 -0.023153427999999997 0.2423185 -0.0023966644 0.0079621215 0.025180826 -0.046041074 0.31519173 0.21896092 0.30766391 0.53138597 0.41760631 0.48482066 0.56905186 0.70470753 0.67666848 0.63186926 0.80665436 0.67985002 0.57379448 0.69169559 0.70951523 0.68260676 0.60653853 0.62393644 0.53698955 0.79352766 1.1080892 1.0154766 1.1737391000000001 0.67925679 0.57059741 0.48242833 0.33532385 0.415497 0.26353051 0.26492582
-0.97070858 -0.78746971 -0.40474516 -0.23162907 -0.067758632 0.14492215 0.42255456 0.53402642 0.35755296 0.52821483 0.4617568 0.36351216 0.313566 -0.023153427999999997 0.2423185 -0.0023966644 0.0079621215 0.025180826 -0.046041074 0.31519173 0.21896092 0.30766391 0.53138597 0.41760631 0.48482066 0.56905186 0.70470753 0.67666848 0.63186926 0.80665436 0.67985002 0.57379448 0.69169559 0.70951523 0.68260676 0.60653853 0.62393644 0.53698955 0.79352766 1.1080892 1.0154766 1.1737391000000001 0.67925679 0.57059741 0.48242833 0.33532385 0.415497 0.26353051 0.26492582 0.19964877
-0.78746971 -0.40474516 -0.23162907 -0.067758632 0.14492215 0.42255456 0.53402642 0.35755296 0.52821483 0.4617568 0.36351216 0.313566 -0.023153427999999997 0.2423185 -0.0023966644 0.0079621215 0.025180826 -0.046041074 0.31519173 0.21896092 0.30766391 0.53138597 0.41760631 0.48482066 0.56905186 0.70470753 0.67666848 0.63186926 0.80665436 0.67985002 0.57379448 0.69169559 0.70951523 0.68260676 0.60653853 0.62393644 0.53698955 0.79352766 1.1080892 1.0154766 1.1737391000000001 0.67925679 0.57059741 0.48242833 0.33532385 0.415497 0.26353051 0.26492582 0.19964877 0.22967746
-0.40474516 -0.23162907 -0.067758632 0.14492215 0.42255456 0.53402642 0.35755296 0.52821483 0.4617568 0.36351216 0.313566 -0.023153427999999997 0.2423185 -0.0023966644 0.0079621215 0.025180826 -0.046041074 0.31519173 0.21896092 0.30766391 0.53138597 0.41760631 0.48482066 0.56905186 0.70470753 0.67666848 0.63186926 0.80665436 0.67985002 0.57379448 0.69169559 0.70951523 0.68260676 0.60653853 0.62393644 0.53698955 0.79352766 1.1080892 1.0154766 1.1737391000000001 0.67925679 0.57059741 0.48242833 0.33532385 0.415497 0.26353051 0.26492582 0.19964877 0.22967746 0.32640105
-0.23162907 -0.067758632 0.14492215 0.42255456 0.53402642 0.35755296 0.52821483 0.4617568 0.36351216 0.313566 -0.023153427999999997 0.2423185 -0.0023966644 0.0079621215 0.025180826 -0.046041074 0.31519173 0.21896092 0.30766391 0.53138597 0.41760631 0.48482066 0.56905186 0.70470753 0.67666848 0.63186926 0.80665436 0.67985002 0.57379448 0.69169559 0.70951523 0.68260676 0.60653853 0.62393644 0.53698955 0.79352766 1.1080892 1.0154766 1.1737391000000001 0.67925679 0.57059741 0.48242833 0.33532385 0.415497 0.26353051 0.26492582 0.19964877 0.22967746 0.32640105 0.20278218
-0.067758632 0.14492215 0.42255456 0.53402642 0.35755296 0.52821483 0.4617568 0.36351216 0.313566 -0.023153427999999997 0.2423185 -0.0023966644 0.0079621215 0.025180826 -0.046041074 0.31519173 0.21896092 0.30766391 0.53138597 0.41760631 0.48482066 0.56905186 0.70470753 0.67666848 0.63186926 0.80665436 0.67985002 0.57379448 0.69169559 0.70951523 0.68260676 0.60653853 0.62393644 0.53698955 0.79352766 1.1080892 1.0154766 1.1737391000000001 0.67925679 0.57059741 0.48242833 0.33532385 0.415497 0.26353051 0.26492582 0.19964877 0.22967746 0.32640105 0.20278218 0.18153191
0.14492215 0.42255456 0.53402642 0.35755296 0.52821483 0.4617568 0.36351216 0.313566 -0.023153427999999997 0.2423185 -0.0023966644 0.0079621215 0.025180826 -0.046041074 0.31519173 0.21896092 0.30766391 0.53138597 0.41760631 0.48482066 0.56905186 0.70470753 0.67666848 0.63186926 0.80665436 0.67985002 0.57379448 0.69169559 0.70951523 0.68260676 0.60653853 0.62393644 0.53698955 0.79352766 1.1080892 1.0154766 1.1737391000000001 0.67925679 0.57059741 0.48242833 0.33532385 0.415497 0.26353051 0.26492582 0.19964877 0.22967746 0.32640105 0.20278218 0.18153191 0.23192633
0.42255456 0.53402642 0.35755296 0.52821483 0.4617568 0.36351216 0.313566 -0.023153427999999997 0.2423185 -0.0023966644 0.0079621215 0.025180826 -0.046041074 0.31519173 0.21896092 0.30766391 0.53138597 0.41760631 0.48482066 0.56905186 0.70470753 0.67666848 0.63186926 0.80665436 0.67985002 0.57379448 0.69169559 0.70951523 0.68260676 0.60653853 0.62393644 0.53698955 0.79352766 1.1080892 1.0154766 1.1737391000000001 0.67925679 0.57059741 0.48242833 0.33532385 0.415497 0.26353051 0.26492582 0.19964877 0.22967746 0.32640105 0.20278218 0.18153191 0.23192633 0.38609804
0.53402642 0.35755296 0.52821483 0.4617568 0.36351216 0.313566 -0.023153427999999997 0.2423185 -0.0023966644 0.0079621215 0.025180826 -0.046041074 0.31519173 0.21896092 0.30766391 0.53138597 0.41760631 0.48482066 0.56905186 0.70470753 0.67666848 0.63186926 0.80665436 0.67985002 0.57379448 0.69169559 0.70951523 0.68260676 0.60653853 0.62393644 0.53698955 0.79352766 1.1080892 1.0154766 1.1737391000000001 0.67925679 0.57059741 0.48242833 0.33532385 0.415497 0.26353051 0.26492582 0.19964877 0.22967746 0.32640105 0.20278218 0.18153191 0.23192633 0.38609804 0.26526622
0.35755296 0.52821483 0.4617568 0.36351216 0.313566 -0.023153427999999997 0.2423185 -0.0023966644 0.0079621215 0.025180826 -0.046041074 0.31519173 0.21896092 0.30766391 0.53138597 0.41760631 0.48482066 0.56905186 0.70470753 0.67666848 0.63186926 0.80665436 0.67985002 0.57379448 0.69169559 0.70951523 0.68260676 0.60653853 0.62393644 0.53698955 0.79352766 1.1080892 1.0154766 1.1737391000000001 0.67925679 0.57059741 0.48242833 0.33532385 0.415497 0.26353051 0.26492582 0.19964877 0.22967746 0.32640105 0.20278218 0.18153191 0.23192633 0.38609804 0.26526622 0.24689965
0.52821483 0.4617568 0.36351216 0.313566 -0.023153427999999997 0.2423185 -0.0023966644 0.0079621215 0.025180826 -0.046041074 0.31519173 0.21896092 0.30766391 0.53138597 0.41760631 0.48482066 0.56905186 0.70470753 0.67666848 0.63186926 0.80665436 0.67985002 0.57379448 0.69169559 0.70951523 0.68260676 0.60653853 0.62393644 0.53698955 0.79352766 1.1080892 1.0154766 1.1737391000000001 0.67925679 0.57059741 0.48242833 0.33532385 0.415497 0.26353051 0.26492582 0.19964877 0.22967746 0.32640105 0.20278218 0.18153191 0.23192633 0.38609804 0.26526622 0.24689965 0.33816714
0.4617568 0.36351216 0.313566 -0.023153427999999997 0.2423185 -0.0023966644 0.0079621215 0.025180826 -0.046041074 0.31519173 0.21896092 0.30766391 0.53138597 0.41760631 0.48482066 0.56905186 0.70470753 0.67666848 0.63186926 0.80665436 0.67985002 0.57379448 0.69169559 0.70951523 0.68260676 0.60653853 0.62393644 0.53698955 0.79352766 1.1080892 1.0154766 1.1737391000000001 0.67925679 0.57059741 0.48242833 0.33532385 0.415497 0.26353051 0.26492582 0.19964877 0.22967746 0.32640105 0.20278218 0.18153191 0.23192633 0.38609804 0.26526622 0.24689965 0.33816714 0.12088731
0.36351216 0.313566 -0.023153427999999997 0.2423185 -0.0023966644 0.0079621215 0.025180826 -0.046041074 0.31519173 0.21896092 0.30766391 0.53138597 0.41760631 0.48482066 0.56905186 0.70470753 0.67666848 0.63186926 0.80665436 0.67985002 0.57379448 0.69169559 0.70951523 0.68260676 0.60653853 0.62393644 0.53698955 0.79352766 1.1080892 1.0154766 1.1737391000000001 0.67925679 0.57059741 0.48242833 0.33532385 0.415497 0.26353051 0.26492582 0.19964877 0.22967746 0.32640105 0.20278218 0.18153191 0.23192633 0.38609804 0.26526622 0.24689965 0.33816714 0.12088731 0.33196993
0.313566 -0.023153427999999997 0.2423185 -0.0023966644 0.0079621215 0.025180826 -0.046041074 0.31519173 0.21896092 0.30766391 0.53138597 0.41760631 0.48482066 0.56905186 0.70470753 0.67666848 0.63186926 0.80665436 0.67985002 0.57379448 0.69169559 0.70951523 0.68260676 0.60653853 0.62393644 0.53698955 0.79352766 1.1080892 1.0154766 1.1737391000000001 0.67925679 0.57059741 0.48242833 0.33532385 0.415497 0.26353051 0.26492582 0.19964877 0.22967746 0.32640105 0.20278218 0.18153191 0.23192633 0.38609804 0.26526622 0.24689965 0.33816714 0.12088731 0.33196993 0.64158999
-0.023153427999999997 0.2423185 -0.0023966644 0.0079621215 0.025180826 -0.046041074 0.31519173 0.21896092 0.30766391 0.53138597 0.41760631 0.48482066 0.56905186 0.70470753 0.67666848 0.63186926 0.80665436 0.67985002 0.57379448 0.69169559 0.70951523 0.68260676 0.60653853 0.62393644 0.53698955 0.79352766 1.1080892 1.0154766 1.1737391000000001 0.67925679 0.57059741 0.48242833 0.33532385 0.415497 0.26353051 0.26492582 0.19964877 0.22967746 0.32640105 0.20278218 0.18153191 0.23192633 0.38609804 0.26526622 0.24689965 0.33816714 0.12088731 0.33196993 0.64158999 1.5313945
0.2423185 -0.0023966644 0.0079621215 0.025180826 -0.046041074 0.31519173 0.21896092 0.30766391 0.53138597 0.41760631 0.48482066 0.56905186 0.70470753 0.67666848 0.63186926 0.80665436 0.67985002 0.57379448 0.69169559 0.70951523 0.68260676 0.60653853 0.62393644 0.53698955 0.79352766 1.1080892 1.0154766 1.1737391000000001 0.67925679 0.57059741 0.48242833 0.33532385 0.415497 0.26353051 0.26492582 0.19964877 0.22967746 0.32640105 0.20278218 0.18153191 0.23192633 0.38609804 0.26526622 0.24689965 0.33816714 0.12088731 0.33196993 0.64158999 1.5313945 3.1248400000000003
-0.0023966644 0.0079621215 0.025180826 -0.046041074 0.31519173 0.21896092 0.30766391 0.53138597 0.41760631 0.48482066 0.56905186 0.70470753 0.67666848 0.63186926 0.80665436 0.67985002 0.57379448 0.69169559 0.70951523 0.68260676 0.60653853 0.62393644 0.53698955 0.79352766 1.1080892 1.0154766 1.1737391000000001 0.67925679 0.57059741 0.48242833 0.33532385 0.415497 0.26353051 0.26492582 0.19964877 0.22967746 0.32640105 0.20278218 0.18153191 0.23192633 0.38609804 0.26526622 0.24689965 0.33816714 0.12088731 0.33196993 0.64158999 1.5313945 3.1248400000000003 3.3320526
0.0079621215 0.025180826 -0.046041074 0.31519173 0.21896092 0.30766391 0.53138597 0.41760631 0.48482066 0.56905186 0.70470753 0.67666848 0.63186926 0.80665436 0.67985002 0.57379448 0.69169559 0.70951523 0.68260676 0.60653853 0.62393644 0.53698955 0.79352766 1.1080892 1.0154766 1.1737391000000001 0.67925679 0.57059741 0.48242833 0.33532385 0.415497 0.26353051 0.26492582 0.19964877 0.22967746 0.32640105 0.20278218 0.18153191 0.23192633 0.38609804 0.26526622 0.24689965 0.33816714 0.12088731 0.33196993 0.64158999 1.5313945 3.1248400000000003 3.3320526 2.6537407
0.025180826 -0.046041074 0.31519173 0.21896092 0.30766391 0.53138597 0.41760631 0.48482066 0.56905186 0.70470753 0.67666848 0.63186926 0.80665436 0.67985002 0.57379448 0.69169559 0.70951523 0.68260676 0.60653853 0.62393644 0.53698955 0.79352766 1.1080892 1.0154766 1.1737391000000001 0.67925679 0.57059741 0.48242833 0.33532385 0.415497 0.26353051 0.26492582 0.19964877 0.22967746 0.32640105 0.20278218 0.18153191 0.23192633 0.38609804 0.26526622 0.24689965 0.33816714 0.12088731 0.33196993 0.64158999 1.5313945 3.1248400000000003 3.3320526 2.6537407 1.1553846
-0.046041074 0.31519173 0.21896092 0.30766391 0.53138597 0.41760631 0.48482066 0.56905186 0.70470753 0.67666848 0.63186926 0.80665436 0.67985002 0.57379448 0.69169559 0.70951523 0.68260676 0.60653853 0.62393644 0.53698955 0.79352766 1.1080892 1.0154766 1.1737391000000001 0.67925679 0.57059741 0.48242833 0.33532385 0.415497 0.26353051 0.26492582 0.19964877 0.22967746 0.32640105 0.20278218 0.18153191 0.23192633 0.38609804 0.26526622 0.24689965 0.33816714 0.12088731 0.33196993 0.64158999 1.5313945 3.1248400000000003 3.3320526 2.6537407 1.1553846 -0.36681942
