0.98754646 2.8132911 3.8502628 2.3797891 1.6998137 0.078576335 -0.59667118 0.82701885 0.87119579 0.80990883 0.84297108 0.60561297 0.089042884 -0.59212075 -0.64018804 -0.58381473 -1.0218129999999999 -0.87248309 -0.97818045 -1.0883288999999998 -1.0609642 -1.2332062 -1.3973797 -1.4201622 -1.2854148 -1.6192753 -1.6767421999999998 -1.5017018 -1.6669005000000001 -1.8556772000000001 -1.9268678 -1.5274143 -1.6123279 -1.6619346999999998 -1.2214505 -1.0313656 -0.56222713 -0.14094272 -0.044415415 0.40790194 0.64344005 0.52700599 0.96391793 1.1173066999999999 0.86714949 1.1099006999999999 0.94822195 0.90597994 0.80929904 0.8630134
2.8132911 3.8502628 2.3797891 1.6998137 0.078576335 -0.59667118 0.82701885 0.87119579 0.80990883 0.84297108 0.60561297 0.089042884 -0.59212075 -0.64018804 -0.58381473 -1.0218129999999999 -0.87248309 -0.97818045 -1.0883288999999998 -1.0609642 -1.2332062 -1.3973797 -1.4201622 -1.2854148 -1.6192753 -1.6767421999999998 -1.5017018 -1.6669005000000001 -1.8556772000000001 -1.9268678 -1.5274143 -1.6123279 -1.6619346999999998 -1.2214505 -1.0313656 -0.56222713 -0.14094272 -0.044415415 0.40790194 0.64344005 0.52700599 0.96391793 1.1173066999999999 0.86714949 1.1099006999999999 0.94822195 0.90597994 0.80929904 0.8630134 0.76800848
3.8502628 2.3797891 1.6998137 0.078576335 -0.59667118 0.82701885 0.87119579 0.80990883 0.84297108 0.60561297 0.089042884 -0.59212075 -0.64018804 -0.58381473 -1.0218129999999999 -0.87248309 -0.97818045 -1.0883288999999998 -1.0609642 -1.2332062 -1.3973797 -1.4201622 -1.2854148 -1.6192753 -1.6767421999999998 -1.5017018 -1.6669005000000001 -1.8556772000000001 -1.9268678 -1.5274143 -1.6123279 -1.6619346999999998 -1.2214505 -1.0313656 -0.56222713 -0.14094272 -0.044415415 0.40790194 0.64344005 0.52700599 0.96391793 1.1173066999999999 0.86714949 1.1099006999999999 0.94822195 0.90597994 0.80929904 0.8630134 0.76800848 0.57859233
2.3797891 1.6998137 0.078576335 -0.59667118 0.82701885 0.87119579 0.80990883 0.84297108 0.60561297 0.089042884 -0.59212075 -0.64018804 -0.58381473 -1.0218129999999999 -0.87248309 -0.97818045 -1.0883288999999998 -1.0609642 -1.2332062 -1.3973797 -1.4201622 -1.2854148 -1.6192753 -1.6767421999999998 -1.5017018 -1.6669005000000001 -1.8556772000000001 -1.9268678 -1.5274143 -1.6123279 -1.6619346999999998 -1.2214505 -1.0313656 -0.56222713 -0.14094272 -0.044415415 0.40790194 0.64344005 0.52700599 0.96391793 1.1173066999999999 0.86714949 1.1099006999999999 0.94822195 0.90597994 0.80929904 0.8630134 0.76800848 0.57859233 0.83727355
1.6998137 0.078576335 -0.59667118 0.82701885 0.87119579 0.80990883 0.84297108 0.60561297 0.089042884 -0.59212075 -0.64018804 -0.58381473 -1.0218129999999999 -0.87248309 -0.97818045 -1.0883288999999998 -1.0609642 -1.2332062 -1.3973797 -1.4201622 -1.2854148 -1.6192753 -1.6767421999999998 -1.5017018 -1.6669005000000001 -1.8556772000000001 -1.9268678 -1.5274143 -1.6123279 -1.6619346999999998 -1.2214505 -1.0313656 -0.56222713 -0.14094272 -0.044415415 0.40790194 0.64344005 0.52700599 0.96391793 1.1173066999999999 0.86714949 1.1099006999999999 0.94822195 0.90597994 0.80929904 0.8630134 0.76800848 0.57859233 0.83727355 0.42243563
0.078576335 -0.59667118 0.82701885 0.87119579 0.80990883 0.84297108 0.60561297 0.089042884 -0.59212075 -0.64018804 -0.58381473 -1.0218129999999999 -0.87248309 -0.97818045 -1.0883288999999998 -1.0609642 -1.2332062 -1.3973797 -1.4201622 -1.2854148 -1.6192753 -1.6767421999999998 -1.5017018 -1.6669005000000001 -1.8556772000000001 -1.9268678 -1.5274143 -1.6123279 -1.6619346999999998 -1.2214505 -1.0313656 -0.56222713 -0.14094272 -0.044415415 0.40790194 0.64344005 0.52700599 0.96391793 1.1173066999999999 0.86714949 1.1099006999999999 0.94822195 0.90597994 0.80929904 0.8630134 0.76800848 0.57859233 0.83727355 0.42243563 0.55999064
-0.59667118 0.82701885 0.87119579 0.80990883 0.84297108 0.60561297 0.089042884 -0.59212075 -0.64018804 -0.58381473 -1.0218129999999999 -0.87248309 -0.97818045 -1.0883288999999998 -1.0609642 -1.2332062 -1.3973797 -1.4201622 -1.2854148 -1.6192753 -1.6767421999999998 -1.5017018 -1.6669005000000001 -1.8556772000000001 -1.9268678 -1.5274143 -1.6123279 -1.6619346999999998 -1.2214505 -1.0313656 -0.56222713 -0.14094272 -0.044415415 0.40790194 0.64344005 0.52700599 0.96391793 1.1173066999999999 0.86714949 1.1099006999999999 0.94822195 0.90597994 0.80929904 0.8630134 0.76800848 0.57859233 0.83727355 0.42243563 0.55999064 0.74246549
0.82701885 0.87119579 0.80990883 0.84297108 0.60561297 0.089042884 -0.59212075 -0.64018804 -0.58381473 -1.0218129999999999 -0.87248309 -0.97818045 -1.0883288999999998 -1.0609642 -1.2332062 -1.3973797 -1.4201622 -1.2854148 -1.6192753 -1.6767421999999998 -1.5017018 -1.6669005000000001 -1.8556772000000001 -1.9268678 -1.5274143 -1.6123279 -1.6619346999999998 -1.2214505 -1.0313656 -0.56222713 -0.14094272 -0.044415415 0.40790194 0.64344005 0.52700599 0.96391793 1.1173066999999999 0.86714949 1.1099006999999999 0.94822195 0.90597994 0.80929904 0.8630134 0.76800848 0.57859233 0.83727355 0.42243563 0.55999064 0.74246549 0.55067561
0.87119579 0.80990883 0.84297108 0.60561297 0.089042884 -0.59212075 -0.64018804 -0.58381473 -1.0218129999999999 -0.87248309 -0.97818045 -1.0883288999999998 -1.0609642 -1.2332062 -1.3973797 -1.4201622 -1.2854148 -1.6192753 -1.6767421999999998 -1.5017018 -1.6669005000000001 -1.8556772000000001 -1.9268678 -1.5274143 -1.6123279 -1.6619346999999998 -1.2214505 -1.0313656 -0.56222713 -0.14094272 -0.044415415 0.40790194 0.64344005 0.52700599 0.96391793 1.1173066999999999 0.86714949 1.1099006999999999 0.94822195 0.90597994 0.80929904 0.8630134 0.76800848 0.57859233 0.83727355 0.42243563 0.55999064 0.74246549 0.55067561 0.52511349
0.80990883 0.84297108 0.60561297 0.089042884 -0.59212075 -0.64018804 -0.58381473 -1.0218129999999999 -0.87248309 -0.97818045 -1.0883288999999998 -1.0609642 -1.2332062 -1.3973797 -1.4201622 -1.2854148 -1.6192753 -1.6767421999999998 -1.5017018 -1.6669005000000001 -1.8556772000000001 -1.9268678 -1.5274143 -1.6123279 -1.6619346999999998 -1.2214505 -1.0313656 -0.56222713 -0.14094272 -0.044415415 0.40790194 0.64344005 0.52700599 0.96391793 1.1173066999999999 0.86714949 1.1099006999999999 0.94822195 0.90597994 0.80929904 0.8630134 0.76800848 0.57859233 0.83727355 0.42243563 0.55999064 0.74246549 0.55067561 0.52511349 0.63924848
0.84297108 0.60561297 0.089042884 -0.59212075 -0.64018804 -0.58381473 -1.0218129999999999 -0.87248309 -0.97818045 -1.0883288999999998 -1.0609642 -1.2332062 -1.3973797 -1.4201622 -1.2854148 -1.6192753 -1.6767421999999998 -1.5017018 -1.6669005000000001 -1.8556772000000001 -1.9268678 -1.5274143 -1.6123279 -1.6619346999999998 -1.2214505 -1.0313656 -0.56222713 -0.14094272 -0.044415415 0.40790194 0.64344005 0.52700599 0.96391793 1.1173066999999999 0.86714949 1.1099006999999999 0.94822195 0.90597994 0.80929904 0.8630134 0.76800848 0.57859233 0.83727355 0.42243563 0.55999064 0.74246549 0.55067561 0.52511349 0.63924848 0.47647589
0.60561297 0.089042884 -0.59212075 -0.64018804 -0.58381473 -1.0218129999999999 -0.87248309 -0.97818045 -1.0883288999999998 -1.0609642 -1.2332062 -1.3973797 -1.4201622 -1.2854148 -1.6192753 -1.6767421999999998 -1.5017018 -1.6669005000000001 -1.8556772000000001 -1.9268678 -1.5274143 -1.6123279 -1.6619346999999998 -1.2214505 -1.0313656 -0.56222713 -0.14094272 -0.044415415 0.40790194 0.64344005 0.52700599 0.96391793 1.1173066999999999 0.86714949 1.1099006999999999 0.94822195 0.90597994 0.80929904 0.8630134 0.76800848 0.57859233 0.83727355 0.42243563 0.55999064 0.74246549 0.55067561 0.52511349 0.63924848 0.47647589 0.39718967
0.089042884 -0.59212075 -0.64018804 -0.58381473 -1.0218129999999999 -0.87248309 -0.97818045 -1.0883288999999998 -1.0609642 -1.2332062 -1.3973797 -1.4201622 -1.2854148 -1.6192753 -1.6767421999999998 -1.5017018 -1.6669005000000001 -1.8556772000000001 -1.9268678 -1.5274143 -1.6123279 -1.6619346999999998 -1.2214505 -1.0313656 -0.56222713 -0.14094272 -0.044415415 0.40790194 0.64344005 0.52700599 0.96391793 1.1173066999999999 0.86714949 1.1099006999999999 0.94822195 0.90597994 0.80929904 0.8630134 0.76800848 0.57859233 0.83727355 0.42243563 0.55999064 0.74246549 0.55067561 0.52511349 0.63924848 0.47647589 0.39718967 0.54513339
-0.59212075 -0.64018804 -0.58381473 -1.0218129999999999 -0.87248309 -0.97818045 -1.0883288999999998 -1.0609642 -1.2332062 -1.3973797 -1.4201622 -1.2854148 -1.6192753 -1.6767421999999998 -1.5017018 -1.6669005000000001 -1.8556772000000001 -1.9268678 -1.5274143 -1.6123279 -1.6619346999999998 -1.2214505 -1.0313656 -0.56222713 -0.14094272 -0.044415415 0.40790194 0.64344005 0.52700599 0.96391793 1.1173066999999999 0.86714949 1.1099006999999999 0.94822195 0.90597994 0.80929904 0.8630134 0.76800848 0.57859233 0.83727355 0.42243563 0.55999064 0.74246549 0.55067561 0.52511349 0.63924848 0.47647589 0.39718967 0.54513339 0.33303309999999997
-0.64018804 -0.58381473 -1.0218129999999999 -0.87248309 -0.97818045 -1.0883288999999998 -1.0609642 -1.2332062 -1.3973797 -1.4201622 -1.2854148 -1.6192753 -1.6767421999999998 -1.5017018 -1.6669005000000001 -1.8556772000000001 -1.9268678 -1.5274143 -1.6123279 -1.6619346999999998 -1.2214505 -1.0313656 -0.56222713 -0.14094272 -0.044415415 0.40790194 0.64344005 0.52700599 0.96391793 1.1173066999999999 0.86714949 1.1099006999999999 0.94822195 0.90597994 0.80929904 0.8630134 0.76800848 0.57859233 0.83727355 0.42243563 0.55999064 0.74246549 0.55067561 0.52511349 0.63924848 0.47647589 0.39718967 0.54513339 0.33303309999999997 0.36683921
-0.58381473 -1.0218129999999999 -0.87248309 -0.97818045 -1.0883288999999998 -1.0609642 -1.2332062 -1.3973797 -1.4201622 -1.2854148 -1.6192753 -1.6767421999999998 -1.5017018 -1.6669005000000001 -1.8556772000000001 -1.9268678 -1.5274143 -1.6123279 -1.6619346999999998 -1.2214505 -1.0313656 -0.56222713 -0.14094272 -0.044415415 0.40790194 0.64344005 0.52700599 0.96391793 1.1173066999999999 0.86714949 1.1099006999999999 0.94822195 0.90597994 0.80929904 0.8630134 0.76800848 0.57859233 0.83727355 0.42243563 0.55999064 0.74246549 0.55067561 0.52511349 0.63924848 0.47647589 0.39718967 0.54513339 0.33303309999999997 0.36683921 0.44647151
-1.0218129999999999 -0.87248309 -0.97818045 -1.0883288999999998 -1.0609642 -1.2332062 -1.3973797 -1.4201622 -1.2854148 -1.6192753 -1.6767421999999998 -1.5017018 -1.6669005000000001 -1.8556772000000001 -1.9268678 -1.5274143 -1.6123279 -1.6619346999999998 -1.2214505 -1.0313656 -0.56222713 -0.14094272 -0.044415415 0.40790194 0.64344005 0.52700599 0.96391793 1.1173066999999999 0.86714949 1.1099006999999999 0.94822195 0.90597994 0.80929904 0.8630134 0.76800848 0.57859233 0.83727355 0.42243563 0.55999064 0.74246549 0.55067561 0.52511349 0.63924848 0.47647589 0.39718967 0.54513339 0.33303309999999997 0.36683921 0.44647151 0.078466812
-0.87248309 -0.97818045 -1.0883288999999998 -1.0609642 -1.2332062 -1.3973797 -1.4201622 -1.2854148 -1.6192753 -1.6767421999999998 -1.5017018 -1.6669005000000001 -1.8556772000000001 -1.9268678 -1.5274143 -1.6123279 -1.6619346999999998 -1.2214505 -1.0313656 -0.56222713 -0.14094272 -0.044415415 0.40790194 0.64344005 0.52700599 0.96391793 1.1173066999999999 0.86714949 1.1099006999999999 0.94822195 0.90597994 0.80929904 0.8630134 0.76800848 0.57859233 0.83727355 0.42243563 0.55999064 0.74246549 0.55067561 0.52511349 0.63924848 0.47647589 0.39718967 0.54513339 0.33303309999999997 0.36683921 0.44647151 0.078466812 0.20627515
-0.97818045 -1.0883288999999998 -1.0609642 -1.2332062 -1.3973797 -1.4201622 -1.2854148 -1.6192753 -1.6767421999999998 -1.5017018 -1.6669005000000001 -1.8556772000000001 -1.9268678 -1.5274143 -1.6123279 -1.6619346999999998 -1.2214505 -1.0313656 -0.56222713 -0.14094272 -0.044415415 0.40790194 0.64344005 0.52700599 0.96391793 1.1173066999999999 0.86714949 1.1099006999999999 0.94822195 0.90597994 0.80929904 0.8630134 0.76800848 0.57859233 0.83727355 0.42243563 0.55999064 0.74246549 0.55067561 0.52511349 0.63924848 0.47647589 0.39718967 0.54513339 0.33303309999999997 0.36683921 0.44647151 0.078466812 0.20627515 0.33430092
-1.0883288999999998 -1.0609642 -1.2332062 -1.3973797 -1.4201622 -1.2854148 -1.6192753 -1.6767421999999998 -1.5017018 -1.6669005000000001 -1.8556772000000001 -1.9268678 -1.5274143 -1.6123279 -1.6619346999999998 -1.2214505 -1.0313656 -0.56222713 -0.14094272 -0.044415415 0.40790194 0.64344005 0.52700599 0.96391793 1.1173066999999999 0.86714949 1.1099006999999999 0.94822195 0.90597994 0.80929904 0.8630134 0.76800848 0.57859233 0.83727355 0.42243563 0.55999064 0.74246549 0.55067561 0.52511349 0.63924848 0.47647589 0.39718967 0.54513339 0.33303309999999997 0.36683921 0.44647151 0.078466812 0.20627515 0.33430092 0.10823433
-1.0609642 -1.2332062 -1.3973797 -1.4201622 -1.2854148 -1.6192753 -1.6767421999999998 -1.5017018 -1.6669005000000001 -1.8556772000000001 -1.9268678 -1.5274143 -1.6123279 -1.6619346999999998 -1.2214505 -1.0313656 -0.56222713 -0.14094272 -0.044415415 0.40790194 0.64344005 0.52700599 0.96391793 1.1173066999999999 0.86714949 1.1099006999999999 0.94822195 0.90597994 0.80929904 0.8630134 0.76800848 0.57859233 0.83727355 0.42243563 0.55999064 0.74246549 0.55067561 0.52511349 0.63924848 0.47647589 0.39718967 0.54513339 0.33303309999999997 0.36683921 0.44647151 0.078466812 0.20627515 0.33430092 0.10823433 0.0034538346999999996
-1.2332062 -1.3973797 -1.4201622 -1.2854148 -1.6192753 -1.6767421999999998 -1.5017018 -1.6669005000000001 -1.8556772000000001 -1.9268678 -1.5274143 -1.6123279 -1.6619346999999998 -1.2214505 -1.0313656 -0.56222713 -0.14094272 -0.044415415 0.40790194 0.64344005 0.52700599 0.96391793 1.1173066999999999 0.86714949 1.1099006999999999 0.94822195 0.90597994 0.80929904 0.8630134 0.76800848 0.57859233 0.83727355 0.42243563 0.55999064 0.74246549 0.55067561 0.52511349 0.63924848 0.47647589 0.39718967 0.54513339 0.33303309999999997 0.36683921 0.44647151 0.078466812 0.20627515 0.33430092 0.10823433 0.0034538346999999996 0.028080629
-1.3973797 -1.4201622 -1.2854148 -1.6192753 -1.6767421999999998 -1.5017018 -1.6669005000000001 -1.8556772000000001 -1.9268678 -1.5274143 -1.6123279 -1.6619346999999998 -1.2214505 -1.0313656 -0.56222713 -0.14094272 -0.044415415 0.40790194 0.64344005 0.52700599 0.96391793 1.1173066999999999 0.86714949 1.1099006999999999 0.94822195 0.90597994 0.80929904 0.8630134 0.76800848 0.57859233 0.83727355 0.42243563 0.55999064 0.74246549 0.55067561 0.52511349 0.63924848 0.47647589 0.39718967 0.54513339 0.33303309999999997 0.36683921 0.44647151 0.078466812 0.20627515 0.33430092 0.10823433 0.0034538346999999996 0.028080629 0.28769202
-1.4201622 -1.2854148 -1.6192753 -1.6767421999999998 -1.5017018 -1.6669005000000001 -1.8556772000000001 -1.9268678 -1.5274143 -1.6123279 -1.6619346999999998 -1.2214505 -1.0313656 -0.56222713 -0.14094272 -0.044415415 0.40790194 0.64344005 0.52700599 0.96391793 1.1173066999999999 0.86714949 1.1099006999999999 0.94822195 0.90597994 0.80929904 0.8630134 0.76800848 0.57859233 0.83727355 0.42243563 0.55999064 0.74246549 0.55067561 0.52511349 0.63924848 0.47647589 0.39718967 0.54513339 0.33303309999999997 0.36683921 0.44647151 0.078466812 0.20627515 0.33430092 0.10823433 0.0034538346999999996 0.028080629 0.28769202 0.24131422
-1.2854148 -1.6192753 -1.6767421999999998 -1.5017018 -1.6669005000000001 -1.8556772000000001 -1.9268678 -1.5274143 -1.6123279 -1.6619346999999998 -1.2214505 -1.0313656 -0.56222713 -0.14094272 -0.044415415 0.40790194 0.64344005 0.52700599 0.96391793 1.1173066999999999 0.86714949 1.1099006999999999 0.94822195 0.90597994 0.80929904 0.8630134 0.76800848 0.57859233 0.83727355 0.42243563 0.55999064 0.74246549 0.55067561 0.52511349 0.63924848 0.47647589 0.39718967 0.54513339 0.33303309999999997 0.36683921 0.44647151 0.078466812 0.20627515 0.33430092 0.10823433 0.0034538346999999996 0.028080629 0.28769202 0.24131422 0.69449025
-1.6192753 -1.6767421999999998 -1.5017018 -1.6669005000000001 -1.8556772000000001 -1.9268678 -1.5274143 -1.6123279 -1.6619346999999998 -1.2214505 -1.0313656 -0.56222713 -0.14094272 -0.044415415 0.40790194 0.64344005 0.52700599 0.96391793 1.1173066999999999 0.86714949 1.1099006999999999 0.94822195 0.90597994 0.80929904 0.8630134 0.76800848 0.57859233 0.83727355 0.42243563 0.55999064 0.74246549 0.55067561 0.52511349 0.63924848 0.47647589 0.39718967 0.54513339 0.33303309999999997 0.36683921 0.44647151 0.078466812 0.20627515 0.33430092 0.10823433 0.0034538346999999996 0.028080629 0.28769202 0.24131422 0.69449025 0.67393263
-1.6767421999999998 -1.5017018 -1.6669005000000001 -1.8556772000000001 -1.9268678 -1.5274143 -1.6123279 -1.6619346999999998 -1.2214505 -1.0313656 -0.56222713 -0.14094272 -0.044415415 0.40790194 0.64344005 0.52700599 0.96391793 1.1173066999999999 0.86714949 1.1099006999999999 0.94822195 0.90597994 0.80929904 0.8630134 0.76800848 0.57859233 0.83727355 0.42243563 0.55999064 0.74246549 0.55067561 0.52511349 0.63924848 0.47647589 0.39718967 0.54513339 0.33303309999999997 0.36683921 0.44647151 0.078466812 0.20627515 0.33430092 0.10823433 0.0034538346999999996 0.028080629 0.28769202 0.24131422 0.69449025 0.67393263 0.49159487
-1.5017018 -1.6669005000000001 -1.8556772000000001 -1.9268678 -1.5274143 -1.6123279 -1.6619346999999998 -1.2214505 -1.0313656 -0.56222713 -0.14094272 -0.044415415 0.40790194 0.64344005 0.52700599 0.96391793 1.1173066999999999 0.86714949 1.1099006999999999 0.94822195 0.90597994 0.80929904 0.8630134 0.76800848 0.57859233 0.83727355 0.42243563 0.55999064 0.74246549 0.55067561 0.52511349 0.63924848 0.47647589 0.39718967 0.54513339 0.33303309999999997 0.36683921 0.44647151 0.078466812 0.20627515 0.33430092 0.10823433 0.0034538346999999996 0.028080629 0.28769202 0.24131422 0.69449025 0.67393263 0.49159487 0.5070639
-1.6669005000000001 -1.8556772000000001 -1.9268678 -1.5274143 -1.6123279 -1.6619346999999998 -1.2214505 -1.0313656 -0.56222713 -0.14094272 -0.044415415 0.40790194 0.64344005 0.52700599 0.96391793 1.1173066999999999 0.86714949 1.1099006999999999 0.94822195 0.90597994 0.80929904 0.8630134 0.76800848 0.57859233 0.83727355 0.42243563 0.55999064 0.74246549 0.55067561 0.52511349 0.63924848 0.47647589 0.39718967 0.54513339 0.33303309999999997 0.36683921 0.44647151 0.078466812 0.20627515 0.33430092 0.10823433 0.0034538346999999996 0.028080629 0.28769202 0.24131422 0.69449025 0.67393263 0.49159487 0.5070639 0.10098599
-1.8556772000000001 -1.9268678 -1.5274143 -1.6123279 -1.6619346999999998 -1.2214505 -1.0313656 -0.56222713 -0.14094272 -0.044415415 0.40790194 0.64344005 0.52700599 0.96391793 1.1173066999999999 0.86714949 1.1099006999999999 0.94822195 0.90597994 0.80929904 0.8630134 0.76800848 0.57859233 0.83727355 0.42243563 0.55999064 0.74246549 0.55067561 0.52511349 0.63924848 0.47647589 0.39718967 0.54513339 0.33303309999999997 0.36683921 0.44647151 0.078466812 0.20627515 0.33430092 0.10823433 0.0034538346999999996 0.028080629 0.28769202 0.24131422 0.69449025 0.67393263 0.49159487 0.5070639 0.10098599 0.25562729
-1.9268678 -1.5274143 -1.6123279 -1.6619346999999998 -1.2214505 -1.0313656 -0.56222713 -0.14094272 -0.044415415 0.40790194 0.64344005 0.52700599 0.96391793 1.1173066999999999 0.86714949 1.1099006999999999 0.94822195 0.90597994 0.80929904 0.8630134 0.76800848 0.57859233 0.83727355 0.42243563 0.55999064 0.74246549 0.55067561 0.52511349 0.63924848 0.47647589 0.39718967 0.54513339 0.33303309999999997 0.36683921 0.44647151 0.078466812 0.20627515 0.33430092 0.10823433 0.0034538346999999996 0.028080629 0.28769202 0.24131422 0.69449025 0.67393263 0.49159487 0.5070639 0.10098599 0.25562729 -0.080152137
-1.5274143 -1.6123279 -1.6619346999999998 -1.2214505 -1.0313656 -0.56222713 -0.14094272 -0.044415415 0.40790194 0.64344005 0.52700599 0.96391793 1.1173066999999999 0.86714949 1.1099006999999999 0.94822195 0.90597994 0.80929904 0.8630134 0.76800848 0.57859233 0.83727355 0.42243563 0.55999064 0.74246549 0.55067561 0.52511349 0.63924848 0.47647589 0.39718967 0.54513339 0.33303309999999997 0.36683921 0.44647151 0.078466812 0.20627515 0.33430092 0.10823433 0.0034538346999999996 0.028080629 0.28769202 0.24131422 0.69449025 0.67393263 0.49159487 0.5070639 0.10098599 0.25562729 -0.080152137 -0.40710484
-1.6123279 -1.6619346999999998 -1.2214505 -1.0313656 -0.56222713 -0.14094272 -0.044415415 0.40790194 0.64344005 0.52700599 0.96391793 1.1173066999999999 0.86714949 1.1099006999999999 0.94822195 0.90597994 0.80929904 0.8630134 0.76800848 0.57859233 0.83727355 0.42243563 0.55999064 0.74246549 0.55067561 0.52511349 0.63924848 0.47647589 0.39718967 0.54513339 0.33303309999999997 0.36683921 0.44647151 0.078466812 0.20627515 0.33430092 0.10823433 0.0034538346999999996 0.028080629 0.28769202 0.24131422 0.69449025 0.67393263 0.49159487 0.5070639 0.10098599 0.25562729 -0.080152137 -0.40710484 -0.17139404
-1.6619346999999998 -1.2214505 -1.0313656 -0.56222713 -0.14094272 -0.044415415 0.40790194 0.64344005 0.52700599 0.96391793 1.1173066999999999 0.86714949 1.1099006999999999 0.94822195 0.90597994 0.80929904 0.8630134 0.76800848 0.57859233 0.83727355 0.42243563 0.55999064 0.74246549 0.55067561 0.52511349 0.63924848 0.47647589 0.39718967 0.54513339 0.33303309999999997 0.36683921 0.44647151 0.078466812 0.20627515 0.33430092 0.10823433 0.0034538346999999996 0.028080629 0.28769202 0.24131422 0.69449025 0.67393263 0.49159487 0.5070639 0.10098599 0.25562729 -0.080152137 -0.40710484 -0.17139404 -0.44053475
-1.2214505 -1.0313656 -0.56222713 -0.14094272 -0.044415415 0.40790194 0.64344005 0.52700599 0.96391793 1.1173066999999999 0.86714949 1.1099006999999999 0.94822195 0.90597994 0.80929904 0.8630134 0.76800848 0.57859233 0.83727355 0.42243563 0.55999064 0.74246549 0.55067561 0.52511349 0.63924848 0.47647589 0.39718967 0.54513339 0.33303309999999997 0.36683921 0.44647151 0.078466812 0.20627515 0.33430092 0.10823433 0.0034538346999999996 0.028080629 0.28769202 0.24131422 0.69449025 0.67393263 0.49159487 0.5070639 0.10098599 0.25562729 -0.080152137 -0.40710484 -0.17139404 -0.44053475 -0.32062696
-1.0313656 -0.56222713 -0.14094272 -0.044415415 0.40790194 0.64344005 0.52700599 0.96391793 1.1173066999999999 0.86714949 1.1099006999999999 0.94822195 0.90597994 0.80929904 0.8630134 0.76800848 0.57859233 0.83727355 0.42243563 0.55999064 0.74246549 0.55067561 0.52511349 0.63924848 0.47647589 0.39718967 0.54513339 0.33303309999999997 0.36683921 0.44647151 0.078466812 0.20627515 0.33430092 0.10823433 0.0034538346999999996 0.028080629 0.28769202 0.24131422 0.69449025 0.67393263 0.49159487 0.5070639 0.10098599 0.25562729 -0.080152137 -0.40710484 -0.17139404 -0.44053475 -0.32062696 -0.37312979
-0.56222713 -0.14094272 -0.044415415 0.40790194 0.64344005 0.52700599 0.96391793 1.1173066999999999 0.86714949 1.1099006999999999 0.94822195 0.90597994 0.80929904 0.8630134 0.76800848 0.57859233 0.83727355 0.42243563 0.55999064 0.74246549 0.55067561 0.52511349 0.63924848 0.47647589 0.39718967 0.54513339 0.33303309999999997 0.36683921 0.44647151 0.078466812 0.20627515 0.33430092 0.10823433 0.0034538346999999996 0.028080629 0.28769202 0.24131422 0.69449025 0.67393263 0.49159487 0.5070639 0.10098599 0.25562729 -0.080152137 -0.40710484 -0.17139404 -0.44053475 -0.32062696 -0.37312979 -0.42548927
-0.14094272 -0.044415415 0.40790194 0.64344005 0.52700599 0.96391793 1.1173066999999999 0.86714949 1.1099006999999999 0.94822195 0.90597994 0.80929904 0.8630134 0.76800848 0.57859233 0.83727355 0.42243563 0.55999064 0.74246549 0.55067561 0.52511349 0.63924848 0.47647589 0.39718967 0.54513339 0.33303309999999997 0.36683921 0.44647151 0.078466812 0.20627515 0.33430092 0.10823433 0.0034538346999999996 0.028080629 0.28769202 0.24131422 0.69449025 0.67393263 0.49159487 0.5070639 0.10098599 0.25562729 -0.080152137 -0.40710484 -0.17139404 -0.44053475 -0.32062696 -0.37312979 -0.42548927 -0.24189468
-0.044415415 0.40790194 0.64344005 0.52700599 0.96391793 1.1173066999999999 0.86714949 1.1099006999999999 0.94822195 0.90597994 0.80929904 0.8630134 0.76800848 0.57859233 0.83727355 0.42243563 0.55999064 0.74246549 0.55067561 0.52511349 0.63924848 0.47647589 0.39718967 0.54513339 0.33303309999999997 0.36683921 0.44647151 0.078466812 0.20627515 0.33430092 0.10823433 0.0034538346999999996 0.028080629 0.28769202 0.24131422 0.69449025 0.67393263 0.49159487 0.5070639 0.10098599 0.25562729 -0.080152137 -0.40710484 -0.17139404 -0.44053475 -0.32062696 -0.37312979 -0.42548927 -0.24189468 -0.69143558
0.40790194 0.64344005 0.52700599 0.96391793 1.1173066999999999 0.86714949 1.1099006999999999 0.94822195 0.90597994 0.80929904 0.8630134 0.76800848 0.57859233 0.83727355 0.42243563 0.55999064 0.74246549 0.55067561 0.52511349 0.63924848 0.47647589 0.39718967 0.54513339 0.33303309999999997 0.36683921 0.44647151 0.078466812 0.20627515 0.33430092 0.10823433 0.0034538346999999996 0.028080629 0.28769202 0.24131422 0.69449025 0.67393263 0.49159487 0.5070639 0.10098599 0.25562729 -0.080152137 -0.40710484 -0.17139404 -0.44053475 -0.32062696 -0.37312979 -0.42548927 -0.24189468 -0.69143558 -0.40364135
0.64344005 0.52700599 0.96391793 1.1173066999999999 0.86714949 1.1099006999999999 0.94822195 0.90597994 0.80929904 0.8630134 0.76800848 0.57859233 0.83727355 0.42243563 0.55999064 0.74246549 0.55067561 0.52511349 0.63924848 0.47647589 0.39718967 0.54513339 0.33303309999999997 0.36683921 0.44647151 0.078466812 0.20627515 0.33430092 0.10823433 0.0034538346999999996 0.028080629 0.28769202 0.24131422 0.69449025 0.67393263 0.49159487 0.5070639 0.10098599 0.25562729 -0.080152137 -0.40710484 -0.17139404 -0.44053475 -0.32062696 -0.37312979 -0.42548927 -0.24189468 -0.69143558 -0.40364135 -0.29384537
0.52700599 0.96391793 1.1173066999999999 0.86714949 1.1099006999999999 0.94822195 0.90597994 0.80929904 0.8630134 0.76800848 0.57859233 0.83727355 0.42243563 0.55999064 0.74246549 0.55067561 0.52511349 0.63924848 0.47647589 0.39718967 0.54513339 0.33303309999999997 0.36683921 0.44647151 0.078466812 0.20627515 0.33430092 0.10823433 0.0034538346999999996 0.028080629 0.28769202 0.24131422 0.69449025 0.67393263 0.49159487 0.5070639 0.10098599 0.25562729 -0.080152137 -0.40710484 -0.17139404 -0.44053475 -0.32062696 -0.37312979 -0.42548927 -0.24189468 -0.69143558 -0.40364135 -0.29384537 -0.5591784000000001
0.96391793 1.1173066999999999 0.86714949 1.1099006999999999 0.94822195 0.90597994 0.80929904 0.8630134 0.76800848 0.57859233 0.83727355 0.42243563 0.55999064 0.74246549 0.55067561 0.52511349 0.63924848 0.47647589 0.39718967 0.54513339 0.33303309999999997 0.36683921 0.44647151 0.078466812 0.20627515 0.33430092 0.10823433 0.0034538346999999996 0.028080629 0.28769202 0.24131422 0.69449025 0.67393263 0.49159487 0.5070639 0.10098599 0.25562729 -0.080152137 -0.40710484 -0.17139404 -0.44053475 -0.32062696 -0.37312979 -0.42548927 -0.24189468 -0.69143558 -0.40364135 -0.29384537 -0.5591784000000001 -0.19439362
1.1173066999999999 0.86714949 1.1099006999999999 0.94822195 0.90597994 0.80929904 0.8630134 0.76800848 0.57859233 0.83727355 0.42243563 0.55999064 0.74246549 0.55067561 0.52511349 0.63924848 0.47647589 0.39718967 0.54513339 0.33303309999999997 0.36683921 0.44647151 0.078466812 0.20627515 0.33430092 0.10823433 0.0034538346999999996 0.028080629 0.28769202 0.24131422 0.69449025 0.67393263 0.49159487 0.5070639 0.10098599 0.25562729 -0.080152137 -0.40710484 -0.17139404 -0.44053475 -0.32062696 -0.37312979 -0.42548927 -0.24189468 -0.69143558 -0.40364135 -0.29384537 -0.5591784000000001 -0.19439362 -0.55988427
0.86714949 1.1099006999999999 0.94822195 0.90597994 0.80929904 0.8630134 0.76800848 0.57859233 0.83727355 0.42243563 0.55999064 0.74246549 0.55067561 0.52511349 0.63924848 0.47647589 0.39718967 0.54513339 0.33303309999999997 0.36683921 0.44647151 0.078466812 0.20627515 0.33430092 0.10823433 0.0034538346999999996 0.028080629 0.28769202 0.24131422 0.69449025 0.67393263 0.49159487 0.5070639 0.10098599 0.25562729 -0.080152137 -0.40710484 -0.17139404 -0.44053475 -0.32062696 -0.37312979 -0.42548927 -0.24189468 -0.69143558 -0.40364135 -0.29384537 -0.5591784000000001 -0.19439362 -0.55988427 -0.70637758
1.1099006999999999 0.94822195 0.90597994 0.80929904 0.8630134 0.76800848 0.57859233 0.83727355 0.42243563 0.55999064 0.74246549 0.55067561 0.52511349 0.63924848 0.47647589 0.39718967 0.54513339 0.33303309999999997 0.36683921 0.44647151 0.078466812 0.20627515 0.33430092 0.10823433 0.0034538346999999996 0.028080629 0.28769202 0.24131422 0.69449025 0.67393263 0.49159487 0.5070639 0.10098599 0.25562729 -0.080152137 -0.40710484 -0.17139404 -0.44053475 -0.32062696 -0.37312979 -0.42548927 -0.24189468 -0.69143558 -0.40364135 -0.29384537 -0.5591784000000001 -0.19439362 -0.55988427 -0.70637758 -0.30707688
0.94822195 0.90597994 0.80929904 0.8630134 0.76800848 0.57859233 0.83727355 0.42243563 0.55999064 0.74246549 0.55067561 0.52511349 0.63924848 0.47647589 0.39718967 0.54513339 0.33303309999999997 0.36683921 0.44647151 0.078466812 0.20627515 0.33430092 0.10823433 0.0034538346999999996 0.028080629 0.28769202 0.24131422 0.69449025 0.67393263 0.49159487 0.5070639 0.10098599 0.25562729 -0.080152137 -0.40710484 -0.17139404 -0.44053475 -0.32062696 -0.37312979 -0.42548927 -0.24189468 -0.69143558 -0.40364135 -0.29384537 -0.5591784000000001 -0.19439362 -0.55988427 -0.70637758 -0.30707688 -0.22249628
