0.50112303 0.72913063 0.83374023 1.2557705 2.0013616 2.5040332000000003 2.4541953 2.2203272999999997 2.1224353 1.9165236 1.3821329 0.73544948 0.22085538 -0.04881732 0.058893287999999995 0.37064182 0.35392528 -0.056939609 -0.27014949 -0.030288403999999998 0.18392629 0.034146417000000005 -0.18551869 -0.17694110000000002 -0.14088564 -0.33827446 -0.56327929 -0.53183852 -0.39902793 -0.47085456 -0.69888015 -0.86421976 -0.92543852 -0.92040642 -0.88177787 -0.94323662 -1.2015818999999999 -1.4695271 -1.496398 -1.4124957 -1.56781 -1.9120903999999999 -1.9972442 -1.7388993000000001 -1.5818148 -1.7165979999999998 -1.7979588 -1.6296142 -1.4509832 -1.4278371
0.72913063 0.83374023 1.2557705 2.0013616 2.5040332000000003 2.4541953 2.2203272999999997 2.1224353 1.9165236 1.3821329 0.73544948 0.22085538 -0.04881732 0.058893287999999995 0.37064182 0.35392528 -0.056939609 -0.27014949 -0.030288403999999998 0.18392629 0.034146417000000005 -0.18551869 -0.17694110000000002 -0.14088564 -0.33827446 -0.56327929 -0.53183852 -0.39902793 -0.47085456 -0.69888015 -0.86421976 -0.92543852 -0.92040642 -0.88177787 -0.94323662 -1.2015818999999999 -1.4695271 -1.496398 -1.4124957 -1.56781 -1.9120903999999999 -1.9972442 -1.7388993000000001 -1.5818148 -1.7165979999999998 -1.7979588 -1.6296142 -1.4509832 -1.4278371 -1.4234267
0.83374023 1.2557705 2.0013616 2.5040332000000003 2.4541953 2.2203272999999997 2.1224353 1.9165236 1.3821329 0.73544948 0.22085538 -0.04881732 0.058893287999999995 0.37064182 0.35392528 -0.056939609 -0.27014949 -0.030288403999999998 0.18392629 0.034146417000000005 -0.18551869 -0.17694110000000002 -0.14088564 -0.33827446 -0.56327929 -0.53183852 -0.39902793 -0.47085456 -0.69888015 -0.86421976 -0.92543852 -0.92040642 -0.88177787 -0.94323662 -1.2015818999999999 -1.4695271 -1.496398 -1.4124957 -1.56781 -1.9120903999999999 -1.9972442 -1.7388993000000001 -1.5818148 -1.7165979999999998 -1.7979588 -1.6296142 -1.4509832 -1.4278371 -1.4234267 -1.3124234
1.2557705 2.0013616 2.5040332000000003 2.4541953 2.2203272999999997 2.1224353 1.9165236 1.3821329 0.73544948 0.22085538 -0.04881732 0.058893287999999995 0.37064182 0.35392528 -0.056939609 -0.27014949 -0.030288403999999998 0.18392629 0.034146417000000005 -0.18551869 -0.17694110000000002 -0.14088564 -0.33827446 -0.56327929 -0.53183852 -0.39902793 -0.47085456 -0.69888015 -0.86421976 -0.92543852 -0.92040642 -0.88177787 -0.94323662 -1.2015818999999999 -1.4695271 -1.496398 -1.4124957 -1.56781 -1.9120903999999999 -1.9972442 -1.7388993000000001 -1.5818148 -1.7165979999999998 -1.7979588 -1.6296142 -1.4509832 -1.4278371 -1.4234267 -1.3124234 -1.1325473
2.0013616 2.5040332000000003 2.4541953 2.2203272999999997 2.1224353 1.9165236 1.3821329 0.73544948 0.22085538 -0.04881732 0.058893287999999995 0.37064182 0.35392528 -0.056939609 -0.27014949 -0.030288403999999998 0.18392629 0.034146417000000005 -0.18551869 -0.17694110000000002 -0.14088564 -0.33827446 -0.56327929 -0.53183852 -0.39902793 -0.47085456 -0.69888015 -0.86421976 -0.92543852 -0.92040642 -0.88177787 -0.94323662 -1.2015818999999999 -1.4695271 -1.496398 -1.4124957 -1.56781 -1.9120903999999999 -1.9972442 -1.7388993000000001 -1.5818148 -1.7165979999999998 -1.7979588 -1.6296142 -1.4509832 -1.4278371 -1.4234267 -1.3124234 -1.1325473 -0.92964111
2.5040332000000003 2.4541953 2.2203272999999997 2.1224353 1.9165236 1.3821329 0.73544948 0.22085538 -0.04881732 0.058893287999999995 0.37064182 0.35392528 -0.056939609 -0.27014949 -0.030288403999999998 0.18392629 0.034146417000000005 -0.18551869 -0.17694110000000002 -0.14088564 -0.33827446 -0.56327929 -0.53183852 -0.39902793 -0.47085456 -0.69888015 -0.86421976 -0.92543852 -0.92040642 -0.88177787 -0.94323662 -1.2015818999999999 -1.4695271 -1.496398 -1.4124957 -1.56781 -1.9120903999999999 -1.9972442 -1.7388993000000001 -1.5818148 -1.7165979999999998 -1.7979588 -1.6296142 -1.4509832 -1.4278371 -1.4234267 -1.3124234 -1.1325473 -0.92964111 -0.71796579
2.4541953 2.2203272999999997 2.1224353 1.9165236 1.3821329 0.73544948 0.22085538 -0.04881732 0.058893287999999995 0.37064182 0.35392528 -0.056939609 -0.27014949 -0.030288403999999998 0.18392629 0.034146417000000005 -0.18551869 -0.17694110000000002 -0.14088564 -0.33827446 -0.56327929 -0.53183852 -0.39902793 -0.47085456 -0.69888015 -0.86421976 -0.92543852 -0.92040642 -0.88177787 -0.94323662 -1.2015818999999999 -1.4695271 -1.496398 -1.4124957 -1.56781 -1.9120903999999999 -1.9972442 -1.7388993000000001 -1.5818148 -1.7165979999999998 -1.7979588 -1.6296142 -1.4509832 -1.4278371 -1.4234267 -1.3124234 -1.1325473 -0.92964111 -0.71796579 -0.53865342
2.2203272999999997 2.1224353 1.9165236 1.3821329 0.73544948 0.22085538 -0.04881732 0.058893287999999995 0.37064182 0.35392528 -0.056939609 -0.27014949 -0.030288403999999998 0.18392629 0.034146417000000005 -0.18551869 -0.17694110000000002 -0.14088564 -0.33827446 -0.56327929 -0.53183852 -0.39902793 -0.47085456 -0.69888015 -0.86421976 -0.92543852 -0.92040642 -0.88177787 -0.94323662 -1.2015818999999999 -1.4695271 -1.496398 -1.4124957 -1.56781 -1.9120903999999999 -1.9972442 -1.7388993000000001 -1.5818148 -1.7165979999999998 -1.7979588 -1.6296142 -1.4509832 -1.4278371 -1.4234267 -1.3124234 -1.1325473 -0.92964111 -0.71796579 -0.53865342 -0.41701616
2.1224353 1.9165236 1.3821329 0.73544948 0.22085538 -0.04881732 0.058893287999999995 0.37064182 0.35392528 -0.056939609 -0.27014949 -0.030288403999999998 0.18392629 0.034146417000000005 -0.18551869 -0.17694110000000002 -0.14088564 -0.33827446 -0.56327929 -0.53183852 -0.39902793 -0.47085456 -0.69888015 -0.86421976 -0.92543852 -0.92040642 -0.88177787 -0.94323662 -1.2015818999999999 -1.4695271 -1.496398 -1.4124957 -1.56781 -1.9120903999999999 -1.9972442 -1.7388993000000001 -1.5818148 -1.7165979999999998 -1.7979588 -1.6296142 -1.4509832 -1.4278371 -1.4234267 -1.3124234 -1.1325473 -0.92964111 -0.71796579 -0.53865342 -0.41701616 -0.29451916
1.9165236 1.3821329 0.73544948 0.22085538 -0.04881732 0.058893287999999995 0.37064182 0.35392528 -0.056939609 -0.27014949 -0.030288403999999998 0.18392629 0.034146417000000005 -0.18551869 -0.17694110000000002 -0.14088564 -0.33827446 -0.56327929 -0.53183852 -0.39902793 -0.47085456 -0.69888015 -0.86421976 -0.92543852 -0.92040642 -0.88177787 -0.94323662 -1.2015818999999999 -1.4695271 -1.496398 -1.4124957 -1.56781 -1.9120903999999999 -1.9972442 -1.7388993000000001 -1.5818148 -1.7165979999999998 -1.7979588 -1.6296142 -1.4509832 -1.4278371 -1.4234267 -1.3124234 -1.1325473 -0.92964111 -0.71796579 -0.53865342 -0.41701616 -0.29451916 -0.13417765
1.3821329 0.73544948 0.22085538 -0.04881732 0.058893287999999995 0.37064182 0.35392528 -0.056939609 -0.27014949 -0.030288403999999998 0.18392629 0.034146417000000005 -0.18551869 -0.17694110000000002 -0.14088564 -0.33827446 -0.56327929 -0.53183852 -0.39902793 -0.47085456 -0.69888015 -0.86421976 -0.92543852 -0.92040642 -0.88177787 -0.94323662 -1.2015818999999999 -1.4695271 -1.496398 -1.4124957 -1.56781 -1.9120903999999999 -1.9972442 -1.7388993000000001 -1.5818148 -1.7165979999999998 -1.7979588 -1.6296142 -1.4509832 -1.4278371 -1.4234267 -1.3124234 -1.1325473 -0.92964111 -0.71796579 -0.53865342 -0.41701616 -0.29451916 -0.13417765 -0.029799267
0.73544948 0.22085538 -0.04881732 0.058893287999999995 0.37064182 0.35392528 -0.056939609 -0.27014949 -0.030288403999999998 0.18392629 0.034146417000000005 -0.18551869 -0.17694110000000002 -0.14088564 -0.33827446 -0.56327929 -0.53183852 -0.39902793 -0.47085456 -0.69888015 -0.86421976 -0.92543852 -0.92040642 -0.88177787 -0.94323662 -1.2015818999999999 -1.4695271 -1.496398 -1.4124957 -1.56781 -1.9120903999999999 -1.9972442 -1.7388993000000001 -1.5818148 -1.7165979999999998 -1.7979588 -1.6296142 -1.4509832 -1.4278371 -1.4234267 -1.3124234 -1.1325473 -0.92964111 -0.71796579 -0.53865342 -0.41701616 -0.29451916 -0.13417765 -0.029799267 -0.047161714
0.22085538 -0.04881732 0.058893287999999995 0.37064182 0.35392528 -0.056939609 -0.27014949 -0.030288403999999998 0.18392629 0.034146417000000005 -0.18551869 -0.17694110000000002 -0.14088564 -0.33827446 -0.56327929 -0.53183852 -0.39902793 -0.47085456 -0.69888015 -0.86421976 -0.92543852 -0.92040642 -0.88177787 -0.94323662 -1.2015818999999999 -1.4695271 -1.496398 -1.4124957 -1.56781 -1.9120903999999999 -1.9972442 -1.7388993000000001 -1.5818148 -1.7165979999999998 -1.7979588 -1.6296142 -1.4509832 -1.4278371 -1.4234267 -1.3124234 -1.1325473 -0.92964111 -0.71796579 -0.53865342 -0.41701616 -0.29451916 -0.13417765 -0.029799267 -0.047161714 -0.059706364000000005
-0.04881732 0.058893287999999995 0.37064182 0.35392528 -0.056939609 -0.27014949 -0.030288403999999998 0.18392629 0.034146417000000005 -0.18551869 -0.17694110000000002 -0.14088564 -0.33827446 -0.56327929 -0.53183852 -0.39902793 -0.47085456 -0.69888015 -0.86421976 -0.92543852 -0.92040642 -0.88177787 -0.94323662 -1.2015818999999999 -1.4695271 -1.496398 -1.4124957 -1.56781 -1.9120903999999999 -1.9972442 -1.7388993000000001 -1.5818148 -1.7165979999999998 -1.7979588 -1.6296142 -1.4509832 -1.4278371 -1.4234267 -1.3124234 -1.1325473 -0.92964111 -0.71796579 -0.53865342 -0.41701616 -0.29451916 -0.13417765 -0.029799267 -0.047161714 -0.059706364000000005 0.087574776
0.058893287999999995 0.37064182 0.35392528 -0.056939609 -0.27014949 -0.030288403999999998 0.18392629 0.034146417000000005 -0.18551869 -0.17694110000000002 -0.14088564 -0.33827446 -0.56327929 -0.53183852 -0.39902793 -0.47085456 -0.69888015 -0.86421976 -0.92543852 -0.92040642 -0.88177787 -0.94323662 -1.2015818999999999 -1.4695271 -1.496398 -1.4124957 -1.56781 -1.9120903999999999 -1.9972442 -1.7388993000000001 -1.5818148 -1.7165979999999998 -1.7979588 -1.6296142 -1.4509832 -1.4278371 -1.4234267 -1.3124234 -1.1325473 -0.92964111 -0.71796579 -0.53865342 -0.41701616 -0.29451916 -0.13417765 -0.029799267 -0.047161714 -0.059706364000000005 0.087574776 0.29597052
0.37064182 0.35392528 -0.056939609 -0.27014949 -0.030288403999999998 0.18392629 0.034146417000000005 -0.18551869 -0.17694110000000002 -0.14088564 -0.33827446 -0.56327929 -0.53183852 -0.39902793 -0.47085456 -0.69888015 -0.86421976 -0.92543852 -0.92040642 -0.88177787 -0.94323662 -1.2015818999999999 -1.4695271 -1.496398 -1.4124957 -1.56781 -1.9120903999999999 -1.9972442 -1.7388993000000001 -1.5818148 -1.7165979999999998 -1.7979588 -1.6296142 -1.4509832 -1.4278371 -1.4234267 -1.3124234 -1.1325473 -0.92964111 -0.71796579 -0.53865342 -0.41701616 -0.29451916 -0.13417765 -0.029799267 -0.047161714 -0.059706364000000005 0.087574776 0.29597052 0.35727159
0.35392528 -0.056939609 -0.27014949 -0.030288403999999998 0.18392629 0.034146417000000005 -0.18551869 -0.17694110000000002 -0.14088564 -0.33827446 -0.56327929 -0.53183852 -0.39902793 -0.47085456 -0.69888015 -0.86421976 -0.92543852 -0.92040642 -0.88177787 -0.94323662 -1.2015818999999999 -1.4695271 -1.496398 -1.4124957 -1.56781 -1.9120903999999999 -1.9972442 -1.7388993000000001 -1.5818148 -1.7165979999999998 -1.7979588 -1.6296142 -1.4509832 -1.4278371 -1.4234267 -1.3124234 -1.1325473 -0.92964111 -0.71796579 -0.53865342 -0.41701616 -0.29451916 -0.13417765 -0.029799267 -0.047161714 -0.059706364000000005 0.087574776 0.29597052 0.35727159 0.30529841
-0.056939609 -0.27014949 -0.030288403999999998 0.18392629 0.034146417000000005 -0.18551869 -0.17694110000000002 -0.14088564 -0.33827446 -0.56327929 -0.53183852 -0.39902793 -0.47085456 -0.69888015 -0.86421976 -0.92543852 -0.92040642 -0.88177787 -0.94323662 -1.2015818999999999 -1.4695271 -1.496398 -1.4124957 -1.56781 -1.9120903999999999 -1.9972442 -1.7388993000000001 -1.5818148 -1.7165979999999998 -1.7979588 -1.6296142 -1.4509832 -1.4278371 -1.4234267 -1.3124234 -1.1325473 -0.92964111 -0.71796579 -0.53865342 -0.41701616 -0.29451916 -0.13417765 -0.029799267 -0.047161714 -0.059706364000000005 0.087574776 0.29597052 0.35727159 0.30529841 0.3596797
-0.27014949 -0.030288403999999998 0.18392629 0.034146417000000005 -0.18551869 -0.17694110000000002 -0.14088564 -0.33827446 -0.56327929 -0.53183852 -0.39902793 -0.47085456 -0.69888015 -0.86421976 -0.92543852 -0.92040642 -0.88177787 -0.94323662 -1.2015818999999999 -1.4695271 -1.496398 -1.4124957 -1.56781 -1.9120903999999999 -1.9972442 -1.7388993000000001 -1.5818148 -1.7165979999999998 -1.7979588 -1.6296142 -1.4509832 -1.4278371 -1.4234267 -1.3124234 -1.1325473 -0.92964111 -0.71796579 -0.53865342 -0.41701616 -0.29451916 -0.13417765 -0.029799267 -0.047161714 -0.059706364000000005 0.087574776 0.29597052 0.35727159 0.30529841 0.3596797 0.53631147
-0.030288403999999998 0.18392629 0.034146417000000005 -0.18551869 -0.17694110000000002 -0.14088564 -0.33827446 -0.56327929 -0.53183852 -0.39902793 -0.47085456 -0.69888015 -0.86421976 -0.92543852 -0.92040642 -0.88177787 -0.94323662 -1.2015818999999999 -1.4695271 -1.496398 -1.4124957 -1.56781 -1.9120903999999999 -1.9972442 -1.7388993000000001 -1.5818148 -1.7165979999999998 -1.7979588 -1.6296142 -1.4509832 -1.4278371 -1.4234267 -1.3124234 -1.1325473 -0.92964111 -0.71796579 -0.53865342 -0.41701616 -0.29451916 -0.13417765 -0.029799267 -0.047161714 -0.059706364000000005 0.087574776 0.29597052 0.35727159 0.30529841 0.3596797 0.53631147 0.60598555
0.18392629 0.034146417000000005 -0.18551869 -0.17694110000000002 -0.14088564 -0.33827446 -0.56327929 -0.53183852 -0.39902793 -0.47085456 -0.69888015 -0.86421976 -0.92543852 -0.92040642 -0.88177787 -0.94323662 -1.2015818999999999 -1.4695271 -1.496398 -1.4124957 -1.56781 -1.9120903999999999 -1.9972442 -1.7388993000000001 -1.5818148 -1.7165979999999998 -1.7979588 -1.6296142 -1.4509832 -1.4278371 -1.4234267 -1.3124234 -1.1325473 -0.92964111 -0.71796579 -0.53865342 -0.41701616 -0.29451916 -0.13417765 -0.029799267 -0.047161714 -0.059706364000000005 0.087574776 0.29597052 0.35727159 0.30529841 0.3596797 0.53631147 0.60598555 0.52141357
0.034146417000000005 -0.18551869 -0.17694110000000002 -0.14088564 -0.33827446 -0.56327929 -0.53183852 -0.39902793 -0.47085456 -0.69888015 -0.86421976 -0.92543852 -0.92040642 -0.88177787 -0.94323662 -1.2015818999999999 -1.4695271 -1.496398 -1.4124957 -1.56781 -1.9120903999999999 -1.9972442 -1.7388993000000001 -1.5818148 -1.7165979999999998 -1.7979588 -1.6296142 -1.4509832 -1.4278371 -1.4234267 -1.3124234 -1.1325473 -0.92964111 -0.71796579 -0.53865342 -0.41701616 -0.29451916 -0.13417765 -0.029799267 -0.047161714 -0.059706364000000005 0.087574776 0.29597052 0.35727159 0.30529841 0.3596797 0.53631147 0.60598555 0.52141357 0.49248463
-0.18551869 -0.17694110000000002 -0.14088564 -0.33827446 -0.56327929 -0.53183852 -0.39902793 -0.47085456 -0.69888015 -0.86421976 -0.92543852 -0.92040642 -0.88177787 -0.94323662 -1.2015818999999999 -1.4695271 -1.496398 -1.4124957 -1.56781 -1.9120903999999999 -1.9972442 -1.7388993000000001 -1.5818148 -1.7165979999999998 -1.7979588 -1.6296142 -1.4509832 -1.4278371 -1.4234267 -1.3124234 -1.1325473 -0.92964111 -0.71796579 -0.53865342 -0.41701616 -0.29451916 -0.13417765 -0.029799267 -0.047161714 -0.059706364000000005 0.087574776 0.29597052 0.35727159 0.30529841 0.3596797 0.53631147 0.60598555 0.52141357 0.49248463 0.56384421
-0.17694110000000002 -0.14088564 -0.33827446 -0.56327929 -0.53183852 -0.39902793 -0.47085456 -0.69888015 -0.86421976 -0.92543852 -0.92040642 -0.88177787 -0.94323662 -1.2015818999999999 -1.4695271 -1.496398 -1.4124957 -1.56781 -1.9120903999999999 -1.9972442 -1.7388993000000001 -1.5818148 -1.7165979999999998 -1.7979588 -1.6296142 -1.4509832 -1.4278371 -1.4234267 -1.3124234 -1.1325473 -0.92964111 -0.71796579 -0.53865342 -0.41701616 -0.29451916 -0.13417765 -0.029799267 -0.047161714 -0.059706364000000005 0.087574776 0.29597052 0.35727159 0.30529841 0.3596797 0.53631147 0.60598555 0.52141357 0.49248463 0.56384421 0.5486995
-0.14088564 -0.33827446 -0.56327929 -0.53183852 -0.39902793 -0.47085456 -0.69888015 -0.86421976 -0.92543852 -0.92040642 -0.88177787 -0.94323662 -1.2015818999999999 -1.4695271 -1.496398 -1.4124957 -1.56781 -1.9120903999999999 -1.9972442 -1.7388993000000001 -1.5818148 -1.7165979999999998 -1.7979588 -1.6296142 -1.4509832 -1.4278371 -1.4234267 -1.3124234 -1.1325473 -0.92964111 -0.71796579 -0.53865342 -0.41701616 -0.29451916 -0.13417765 -0.029799267 -0.047161714 -0.059706364000000005 0.087574776 0.29597052 0.35727159 0.30529841 0.3596797 0.53631147 0.60598555 0.52141357 0.49248463 0.56384421 0.5486995 0.45977545
-0.33827446 -0.56327929 -0.53183852 -0.39902793 -0.47085456 -0.69888015 -0.86421976 -0.92543852 -0.92040642 -0.88177787 -0.94323662 -1.2015818999999999 -1.4695271 -1.496398 -1.4124957 -1.56781 -1.9120903999999999 -1.9972442 -1.7388993000000001 -1.5818148 -1.7165979999999998 -1.7979588 -1.6296142 -1.4509832 -1.4278371 -1.4234267 -1.3124234 -1.1325473 -0.92964111 -0.71796579 -0.53865342 -0.41701616 -0.29451916 -0.13417765 -0.029799267 -0.047161714 -0.059706364000000005 0.087574776 0.29597052 0.35727159 0.30529841 0.3596797 0.53631147 0.60598555 0.52141357 0.49248463 0.56384421 0.5486995 0.45977545 0.53210383
-0.56327929 -0.53183852 -0.39902793 -0.47085456 -0.69888015 -0.86421976 -0.92543852 -0.92040642 -0.88177787 -0.94323662 -1.2015818999999999 -1.4695271 -1.496398 -1.4124957 -1.56781 -1.9120903999999999 -1.9972442 -1.7388993000000001 -1.5818148 -1.7165979999999998 -1.7979588 -1.6296142 -1.4509832 -1.4278371 -1.4234267 -1.3124234 -1.1325473 -0.92964111 -0.71796579 -0.53865342 -0.41701616 -0.29451916 -0.13417765 -0.029799267 -0.047161714 -0.059706364000000005 0.087574776 0.29597052 0.35727159 0.30529841 0.3596797 0.53631147 0.60598555 0.52141357 0.49248463 0.56384421 0.5486995 0.45977545 0.53210383 0.75307517
-0.53183852 -0.39902793 -0.47085456 -0.69888015 -0.86421976 -0.92543852 -0.92040642 -0.88177787 -0.94323662 -1.2015818999999999 -1.4695271 -1.496398 -1.4124957 -1.56781 -1.9120903999999999 -1.9972442 -1.7388993000000001 -1.5818148 -1.7165979999999998 -1.7979588 -1.6296142 -1.4509832 -1.4278371 -1.4234267 -1.3124234 -1.1325473 -0.92964111 -0.71796579 -0.53865342 -0.41701616 -0.29451916 -0.13417765 -0.029799267 -0.047161714 -0.059706364000000005 0.087574776 0.29597052 0.35727159 0.30529841 0.3596797 0.53631147 0.60598555 0.52141357 0.49248463 0.56384421 0.5486995 0.45977545 0.53210383 0.75307517 0.84651787
-0.39902793 -0.47085456 -0.69888015 -0.86421976 -0.92543852 -0.92040642 -0.88177787 -0.94323662 -1.2015818999999999 -1.4695271 -1.496398 -1.4124957 -1.56781 -1.9120903999999999 -1.9972442 -1.7388993000000001 -1.5818148 -1.7165979999999998 -1.7979588 -1.6296142 -1.4509832 -1.4278371 -1.4234267 -1.3124234 -1.1325473 -0.92964111 -0.71796579 -0.53865342 -0.41701616 -0.29451916 -0.13417765 -0.029799267 -0.047161714 -0.059706364000000005 0.087574776 0.29597052 0.35727159 0.30529841 0.3596797 0.53631147 0.60598555 0.52141357 0.49248463 0.56384421 0.5486995 0.45977545 0.53210383 0.75307517 0.84651787 0.7551361
-0.47085456 -0.69888015 -0.86421976 -0.92543852 -0.92040642 -0.88177787 -0.94323662 -1.2015818999999999 -1.4695271 -1.496398 -1.4124957 -1.56781 -1.9120903999999999 -1.9972442 -1.7388993000000001 -1.5818148 -1.7165979999999998 -1.7979588 -1.6296142 -1.4509832 -1.4278371 -1.4234267 -1.3124234 -1.1325473 -0.92964111 -0.71796579 -0.53865342 -0.41701616 -0.29451916 -0.13417765 -0.029799267 -0.047161714 -0.059706364000000005 0.087574776 0.29597052 0.35727159 0.30529841 0.3596797 0.53631147 0.60598555 0.52141357 0.49248463 0.56384421 0.5486995 0.45977545 0.53210383 0.75307517 0.84651787 0.7551361 0.69976801
-0.69888015 -0.86421976 -0.92543852 -0.92040642 -0.88177787 -0.94323662 -1.2015818999999999 -1.4695271 -1.496398 -1.4124957 -1.56781 -1.9120903999999999 -1.9972442 -1.7388993000000001 -1.5818148 -1.7165979999999998 -1.7979588 -1.6296142 -1.4509832 -1.4278371 -1.4234267 -1.3124234 -1.1325473 -0.92964111 -0.71796579 -0.53865342 -0.41701616 -0.29451916 -0.13417765 -0.029799267 -0.047161714 -0.059706364000000005 0.087574776 0.29597052 0.35727159 0.30529841 0.3596797 0.53631147 0.60598555 0.52141357 0.49248463 0.56384421 0.5486995 0.45977545 0.53210383 0.75307517 0.84651787 0.7551361 0.69976801 0.73676406
-0.86421976 -0.92543852 -0.92040642 -0.88177787 -0.94323662 -1.2015818999999999 -1.4695271 -1.496398 -1.4124957 -1.56781 -1.9120903999999999 -1.9972442 -1.7388993000000001 -1.5818148 -1.7165979999999998 -1.7979588 -1.6296142 -1.4509832 -1.4278371 -1.4234267 -1.3124234 -1.1325473 -0.92964111 -0.71796579 -0.53865342 -0.41701616 -0.29451916 -0.13417765 -0.029799267 -0.047161714 -0.059706364000000005 0.087574776 0.29597052 0.35727159 0.30529841 0.3596797 0.53631147 0.60598555 0.52141357 0.49248463 0.56384421 0.5486995 0.45977545 0.53210383 0.75307517 0.84651787 0.7551361 0.69976801 0.73676406 0.65962871
-0.92543852 -0.92040642 -0.88177787 -0.94323662 -1.2015818999999999 -1.4695271 -1.496398 -1.4124957 -1.56781 -1.9120903999999999 -1.9972442 -1.7388993000000001 -1.5818148 -1.7165979999999998 -1.7979588 -1.6296142 -1.4509832 -1.4278371 -1.4234267 -1.3124234 -1.1325473 -0.92964111 -0.71796579 -0.53865342 -0.41701616 -0.29451916 -0.13417765 -0.029799267 -0.047161714 -0.059706364000000005 0.087574776 0.29597052 0.35727159 0.30529841 0.3596797 0.53631147 0.60598555 0.52141357 0.49248463 0.56384421 0.5486995 0.45977545 0.53210383 0.75307517 0.84651787 0.7551361 0.69976801 0.73676406 0.65962871 0.45889683
-0.92040642 -0.88177787 -0.94323662 -1.2015818999999999 -1.4695271 -1.496398 -1.4124957 -1.56781 -1.9120903999999999 -1.9972442 -1.7388993000000001 -1.5818148 -1.7165979999999998 -1.7979588 -1.6296142 -1.4509832 -1.4278371 -1.4234267 -1.3124234 -1.1325473 -0.92964111 -0.71796579 -0.53865342 -0.41701616 -0.29451916 -0.13417765 -0.029799267 -0.047161714 -0.059706364000000005 0.087574776 0.29597052 0.35727159 0.30529841 0.3596797 0.53631147 0.60598555 0.52141357 0.49248463 0.56384421 0.5486995 0.45977545 0.53210383 0.75307517 0.84651787 0.7551361 0.69976801 0.73676406 0.65962871 0.45889683 0.42427792
-0.88177787 -0.94323662 -1.2015818999999999 -1.4695271 -1.496398 -1.4124957 -1.56781 -1.9120903999999999 -1.9972442 -1.7388993000000001 -1.5818148 -1.7165979999999998 -1.7979588 -1.6296142 -1.4509832 -1.4278371 -1.4234267 -1.3124234 -1.1325473 -0.92964111 -0.71796579 -0.53865342 -0.41701616 -0.29451916 -0.13417765 -0.029799267 -0.047161714 -0.059706364000000005 0.087574776 0.29597052 0.35727159 0.30529841 0.3596797 0.53631147 0.60598555 0.52141357 0.49248463 0.56384421 0.5486995 0.45977545 0.53210383 0.75307517 0.84651787 0.7551361 0.69976801 0.73676406 0.65962871 0.45889683 0.42427792 0.57514723
-0.94323662 -1.2015818999999999 -1.4695271 -1.496398 -1.4124957 -1.56781 -1.9120903999999999 -1.9972442 -1.7388993000000001 -1.5818148 -1.7165979999999998 -1.7979588 -1.6296142 -1.4509832 -1.4278371 -1.4234267 -1.3124234 -1.1325473 -0.92964111 -0.71796579 -0.53865342 -0.41701616 -0.29451916 -0.13417765 -0.029799267 -0.047161714 -0.059706364000000005 0.087574776 0.29597052 0.35727159 0.30529841 0.3596797 0.53631147 0.60598555 0.52141357 0.49248463 0.56384421 0.5486995 0.45977545 0.53210383 0.75307517 0.84651787 0.7551361 0.69976801 0.73676406 0.65962871 0.45889683 0.42427792 0.57514723 0.55918781
-1.2015818999999999 -1.4695271 -1.496398 -1.4124957 -1.56781 -1.9120903999999999 -1.9972442 -1.7388993000000001 -1.5818148 -1.7165979999999998 -1.7979588 -1.6296142 -1.4509832 -1.4278371 -1.4234267 -1.3124234 -1.1325473 -0.92964111 -0.71796579 -0.53865342 -0.41701616 -0.29451916 -0.13417765 -0.029799267 -0.047161714 -0.059706364000000005 0.087574776 0.29597052 0.35727159 0.30529841 0.3596797 0.53631147 0.60598555 0.52141357 0.49248463 0.56384421 0.5486995 0.45977545 0.53210383 0.75307517 0.84651787 0.7551361 0.69976801 0.73676406 0.65962871 0.45889683 0.42427792 0.57514723 0.55918781 0.35328436
-1.4695271 -1.496398 -1.4124957 -1.56781 -1.9120903999999999 -1.9972442 -1.7388993000000001 -1.5818148 -1.7165979999999998 -1.7979588 -1.6296142 -1.4509832 -1.4278371 -1.4234267 -1.3124234 -1.1325473 -0.92964111 -0.71796579 -0.53865342 -0.41701616 -0.29451916 -0.13417765 -0.029799267 -0.047161714 -0.059706364000000005 0.087574776 0.29597052 0.35727159 0.30529841 0.3596797 0.53631147 0.60598555 0.52141357 0.49248463 0.56384421 0.5486995 0.45977545 0.53210383 0.75307517 0.84651787 0.7551361 0.69976801 0.73676406 0.65962871 0.45889683 0.42427792 0.57514723 0.55918781 0.35328436 0.3580163
-1.496398 -1.4124957 -1.56781 -1.9120903999999999 -1.9972442 -1.7388993000000001 -1.5818148 -1.7165979999999998 -1.7979588 -1.6296142 -1.4509832 -1.4278371 -1.4234267 -1.3124234 -1.1325473 -0.92964111 -0.71796579 -0.53865342 -0.41701616 -0.29451916 -0.13417765 -0.029799267 -0.047161714 -0.059706364000000005 0.087574776 0.29597052 0.35727159 0.30529841 0.3596797 0.53631147 0.60598555 0.52141357 0.49248463 0.56384421 0.5486995 0.45977545 0.53210383 0.75307517 0.84651787 0.7551361 0.69976801 0.73676406 0.65962871 0.45889683 0.42427792 0.57514723 0.55918781 0.35328436 0.3580163 0.60588882
-1.4124957 -1.56781 -1.9120903999999999 -1.9972442 -1.7388993000000001 -1.5818148 -1.7165979999999998 -1.7979588 -1.6296142 -1.4509832 -1.4278371 -1.4234267 -1.3124234 -1.1325473 -0.92964111 -0.71796579 -0.53865342 -0.41701616 -0.29451916 -0.13417765 -0.029799267 -0.047161714 -0.059706364000000005 0.087574776 0.29597052 0.35727159 0.30529841 0.3596797 0.53631147 0.60598555 0.52141357 0.49248463 0.56384421 0.5486995 0.45977545 0.53210383 0.75307517 0.84651787 0.7551361 0.69976801 0.73676406 0.65962871 0.45889683 0.42427792 0.57514723 0.55918781 0.35328436 0.3580163 0.60588882 0.71096266
-1.56781 -1.9120903999999999 -1.9972442 -1.7388993000000001 -1.5818148 -1.7165979999999998 -1.7979588 -1.6296142 -1.4509832 -1.4278371 -1.4234267 -1.3124234 -1.1325473 -0.92964111 -0.71796579 -0.53865342 -0.41701616 -0.29451916 -0.13417765 -0.029799267 -0.047161714 -0.059706364000000005 0.087574776 0.29597052 0.35727159 0.30529841 0.3596797 0.53631147 0.60598555 0.52141357 0.49248463 0.56384421 0.5486995 0.45977545 0.53210383 0.75307517 0.84651787 0.7551361 0.69976801 0.73676406 0.65962871 0.45889683 0.42427792 0.57514723 0.55918781 0.35328436 0.3580163 0.60588882 0.71096266 0.61971023
-1.9120903999999999 -1.9972442 -1.7388993000000001 -1.5818148 -1.7165979999999998 -1.7979588 -1.6296142 -1.4509832 -1.4278371 -1.4234267 -1.3124234 -1.1325473 -0.92964111 -0.71796579 -0.53865342 -0.41701616 -0.29451916 -0.13417765 -0.029799267 -0.047161714 -0.059706364000000005 0.087574776 0.29597052 0.35727159 0.30529841 0.3596797 0.53631147 0.60598555 0.52141357 0.49248463 0.56384421 0.5486995 0.45977545 0.53210383 0.75307517 0.84651787 0.7551361 0.69976801 0.73676406 0.65962871 0.45889683 0.42427792 0.57514723 0.55918781 0.35328436 0.3580163 0.60588882 0.71096266 0.61971023 0.56493009
-1.9972442 -1.7388993000000001 -1.5818148 -1.7165979999999998 -1.7979588 -1.6296142 -1.4509832 -1.4278371 -1.4234267 -1.3124234 -1.1325473 -0.92964111 -0.71796579 -0.53865342 -0.41701616 -0.29451916 -0.13417765 -0.029799267 -0.047161714 -0.059706364000000005 0.087574776 0.29597052 0.35727159 0.30529841 0.3596797 0.53631147 0.60598555 0.52141357 0.49248463 0.56384421 0.5486995 0.45977545 0.53210383 0.75307517 0.84651787 0.7551361 0.69976801 0.73676406 0.65962871 0.45889683 0.42427792 0.57514723 0.55918781 0.35328436 0.3580163 0.60588882 0.71096266 0.61971023 0.56493009 0.55611367
-1.7388993000000001 -1.5818148 -1.7165979999999998 -1.7979588 -1.6296142 -1.4509832 -1.4278371 -1.4234267 -1.3124234 -1.1325473 -0.92964111 -0.71796579 -0.53865342 -0.41701616 -0.29451916 -0.13417765 -0.029799267 -0.047161714 -0.059706364000000005 0.087574776 0.29597052 0.35727159 0.30529841 0.3596797 0.53631147 0.60598555 0.52141357 0.49248463 0.56384421 0.5486995 0.45977545 0.53210383 0.75307517 0.84651787 0.7551361 0.69976801 0.73676406 0.65962871 0.45889683 0.42427792 0.57514723 0.55918781 0.35328436 0.3580163 0.60588882 0.71096266 0.61971023 0.56493009 0.55611367 0.56181896
-1.5818148 -1.7165979999999998 -1.7979588 -1.6296142 -1.4509832 -1.4278371 -1.4234267 -1.3124234 -1.1325473 -0.92964111 -0.71796579 -0.53865342 -0.41701616 -0.29451916 -0.13417765 -0.029799267 -0.047161714 -0.059706364000000005 0.087574776 0.29597052 0.35727159 0.30529841 0.3596797 0.53631147 0.60598555 0.52141357 0.49248463 0.56384421 0.5486995 0.45977545 0.53210383 0.75307517 0.84651787 0.7551361 0.69976801 0.73676406 0.65962871 0.45889683 0.42427792 0.57514723 0.55918781 0.35328436 0.3580163 0.60588882 0.71096266 0.61971023 0.56493009 0.55611367 0.56181896 0.65818662
-1.7165979999999998 -1.7979588 -1.6296142 -1.4509832 -1.4278371 -1.4234267 -1.3124234 -1.1325473 -0.92964111 -0.71796579 -0.53865342 -0.41701616 -0.29451916 -0.13417765 -0.029799267 -0.047161714 -0.059706364000000005 0.087574776 0.29597052 0.35727159 0.30529841 0.3596797 0.53631147 0.60598555 0.52141357 0.49248463 0.56384421 0.5486995 0.45977545 0.53210383 0.75307517 0.84651787 0.7551361 0.69976801 0.73676406 0.65962871 0.45889683 0.42427792 0.57514723 0.55918781 0.35328436 0.3580163 0.60588882 0.71096266 0.61971023 0.56493009 0.55611367 0.56181896 0.65818662 0.63971097
-1.7979588 -1.6296142 -1.4509832 -1.4278371 -1.4234267 -1.3124234 -1.1325473 -0.92964111 -0.71796579 -0.53865342 -0.41701616 -0.29451916 -0.13417765 -0.029799267 -0.047161714 -0.059706364000000005 0.087574776 0.29597052 0.35727159 0.30529841 0.3596797 0.53631147 0.60598555 0.52141357 0.49248463 0.56384421 0.5486995 0.45977545 0.53210383 0.75307517 0.84651787 0.7551361 0.69976801 0.73676406 0.65962871 0.45889683 0.42427792 0.57514723 0.55918781 0.35328436 0.3580163 0.60588882 0.71096266 0.61971023 0.56493009 0.55611367 0.56181896 0.65818662 0.63971097 0.24261796
