1.0880765 1.5640399 1.3688902 1.2501573000000001 1.4914982 1.6825891 1.2269507 0.34396908 -0.33531682 -0.72931956 -0.94971983 -1.0159285 -1.0660428 -1.1633753999999998 -1.2074661 -1.2347116000000002 -1.3248416 -1.3649445 -1.3312292 -1.356372 -1.3705120000000002 -1.3339249 -1.3781622 -1.3952861 -1.4009589 -1.4920148000000002 -1.5029839 -1.5535053 -1.5988639 -1.4645683 -1.516411 -1.6458346999999998 -1.5075231000000002 -1.4002917 -1.3866241000000001 -1.2240926 -1.0355959000000001 -0.88889497 -0.67086707 -0.50035903 -0.30486991 -0.042425979 0.011476354 0.10149345 0.25839805 0.1373443 0.10318456 0.25942847 0.28884496 0.37561229
1.5640399 1.3688902 1.2501573000000001 1.4914982 1.6825891 1.2269507 0.34396908 -0.33531682 -0.72931956 -0.94971983 -1.0159285 -1.0660428 -1.1633753999999998 -1.2074661 -1.2347116000000002 -1.3248416 -1.3649445 -1.3312292 -1.356372 -1.3705120000000002 -1.3339249 -1.3781622 -1.3952861 -1.4009589 -1.4920148000000002 -1.5029839 -1.5535053 -1.5988639 -1.4645683 -1.516411 -1.6458346999999998 -1.5075231000000002 -1.4002917 -1.3866241000000001 -1.2240926 -1.0355959000000001 -0.88889497 -0.67086707 -0.50035903 -0.30486991 -0.042425979 0.011476354 0.10149345 0.25839805 0.1373443 0.10318456 0.25942847 0.28884496 0.37561229 0.45706007
1.3688902 1.2501573000000001 1.4914982 1.6825891 1.2269507 0.34396908 -0.33531682 -0.72931956 -0.94971983 -1.0159285 -1.0660428 -1.1633753999999998 -1.2074661 -1.2347116000000002 -1.3248416 -1.3649445 -1.3312292 -1.356372 -1.3705120000000002 -1.3339249 -1.3781622 -1.3952861 -1.4009589 -1.4920148000000002 -1.5029839 -1.5535053 -1.5988639 -1.4645683 -1.516411 -1.6458346999999998 -1.5075231000000002 -1.4002917 -1.3866241000000001 -1.2240926 -1.0355959000000001 -0.88889497 -0.67086707 -0.50035903 -0.30486991 -0.042425979 0.011476354 0.10149345 0.25839805 0.1373443 0.10318456 0.25942847 0.28884496 0.37561229 0.45706007 0.24608338
1.2501573000000001 1.4914982 1.6825891 1.2269507 0.34396908 -0.33531682 -0.72931956 -0.94971983 -1.0159285 -1.0660428 -1.1633753999999998 -1.2074661 -1.2347116000000002 -1.3248416 -1.3649445 -1.3312292 -1.356372 -1.3705120000000002 -1.3339249 -1.3781622 -1.3952861 -1.4009589 -1.4920148000000002 -1.5029839 -1.5535053 -1.5988639 -1.4645683 -1.516411 -1.6458346999999998 -1.5075231000000002 -1.4002917 -1.3866241000000001 -1.2240926 -1.0355959000000001 -0.88889497 -0.67086707 -0.50035903 -0.30486991 -0.042425979 0.011476354 0.10149345 0.25839805 0.1373443 0.10318456 0.25942847 0.28884496 0.37561229 0.45706007 0.24608338 0.1670573
1.4914982 1.6825891 1.2269507 0.34396908 -0.33531682 -0.72931956 -0.94971983 -1.0159285 -1.0660428 -1.1633753999999998 -1.2074661 -1.2347116000000002 -1.3248416 -1.3649445 -1.3312292 -1.356372 -1.3705120000000002 -1.3339249 -1.3781622 -1.3952861 -1.4009589 -1.4920148000000002 -1.5029839 -1.5535053 -1.5988639 -1.4645683 -1.516411 -1.6458346999999998 -1.5075231000000002 -1.4002917 -1.3866241000000001 -1.2240926 -1.0355959000000001 -0.88889497 -0.67086707 -0.50035903 -0.30486991 -0.042425979 0.011476354 0.10149345 0.25839805 0.1373443 0.10318456 0.25942847 0.28884496 0.37561229 0.45706007 0.24608338 0.1670573 0.34107174
1.6825891 1.2269507 0.34396908 -0.33531682 -0.72931956 -0.94971983 -1.0159285 -1.0660428 -1.1633753999999998 -1.2074661 -1.2347116000000002 -1.3248416 -1.3649445 -1.3312292 -1.356372 -1.3705120000000002 -1.3339249 -1.3781622 -1.3952861 -1.4009589 -1.4920148000000002 -1.5029839 -1.5535053 -1.5988639 -1.4645683 -1.516411 -1.6458346999999998 -1.5075231000000002 -1.4002917 -1.3866241000000001 -1.2240926 -1.0355959000000001 -0.88889497 -0.67086707 -0.50035903 -0.30486991 -0.042425979 0.011476354 0.10149345 0.25839805 0.1373443 0.10318456 0.25942847 0.28884496 0.37561229 0.45706007 0.24608338 0.1670573 0.34107174 0.26229991
1.2269507 0.34396908 -0.33531682 -0.72931956 -0.94971983 -1.0159285 -1.0660428 -1.1633753999999998 -1.2074661 -1.2347116000000002 -1.3248416 -1.3649445 -1.3312292 -1.356372 -1.3705120000000002 -1.3339249 -1.3781622 -1.3952861 -1.4009589 -1.4920148000000002 -1.5029839 -1.5535053 -1.5988639 -1.4645683 -1.516411 -1.6458346999999998 -1.5075231000000002 -1.4002917 -1.3866241000000001 -1.2240926 -1.0355959000000001 -0.88889497 -0.67086707 -0.50035903 -0.30486991 -0.042425979 0.011476354 0.10149345 0.25839805 0.1373443 0.10318456 0.25942847 0.28884496 0.37561229 0.45706007 0.24608338 0.1670573 0.34107174 0.26229991 0.22048166
0.34396908 -0.33531682 -0.72931956 -0.94971983 -1.0159285 -1.0660428 -1.1633753999999998 -1.2074661 -1.2347116000000002 -1.3248416 -1.3649445 -1.3312292 -1.356372 -1.3705120000000002 -1.3339249 -1.3781622 -1.3952861 -1.4009589 -1.4920148000000002 -1.5029839 -1.5535053 -1.5988639 -1.4645683 -1.516411 -1.6458346999999998 -1.5075231000000002 -1.4002917 -1.3866241000000001 -1.2240926 -1.0355959000000001 -0.88889497 -0.67086707 -0.50035903 -0.30486991 -0.042425979 0.011476354 0.10149345 0.25839805 0.1373443 0.10318456 0.25942847 0.28884496 0.37561229 0.45706007 0.24608338 0.1670573 0.34107174 0.26229991 0.22048166 0.36496225
-0.33531682 -0.72931956 -0.94971983 -1.0159285 -1.0660428 -1.1633753999999998 -1.2074661 -1.2347116000000002 -1.3248416 -1.3649445 -1.3312292 -1.356372 -1.3705120000000002 -1.3339249 -1.3781622 -1.3952861 -1.4009589 -1.4920148000000002 -1.5029839 -1.5535053 -1.5988639 -1.4645683 -1.516411 -1.6458346999999998 -1.5075231000000002 -1.4002917 -1.3866241000000001 -1.2240926 -1.0355959000000001 -0.88889497 -0.67086707 -0.50035903 -0.30486991 -0.042425979 0.011476354 0.10149345 0.25839805 0.1373443 0.10318456 0.25942847 0.28884496 0.37561229 0.45706007 0.24608338 0.1670573 0.34107174 0.26229991 0.22048166 0.36496225 0.28835255
-0.72931956 -0.94971983 -1.0159285 -1.0660428 -1.1633753999999998 -1.2074661 -1.2347116000000002 -1.3248416 -1.3649445 -1.3312292 -1.356372 -1.3705120000000002 -1.3339249 -1.3781622 -1.3952861 -1.4009589 -1.4920148000000002 -1.5029839 -1.5535053 -1.5988639 -1.4645683 -1.516411 -1.6458346999999998 -1.5075231000000002 -1.4002917 -1.3866241000000001 -1.2240926 -1.0355959000000001 -0.88889497 -0.67086707 -0.50035903 -0.30486991 -0.042425979 0.011476354 0.10149345 0.25839805 0.1373443 0.10318456 0.25942847 0.28884496 0.37561229 0.45706007 0.24608338 0.1670573 0.34107174 0.26229991 0.22048166 0.36496225 0.28835255 0.28827916
-0.94971983 -1.0159285 -1.0660428 -1.1633753999999998 -1.2074661 -1.2347116000000002 -1.3248416 -1.3649445 -1.3312292 -1.356372 -1.3705120000000002 -1.3339249 -1.3781622 -1.3952861 -1.4009589 -1.4920148000000002 -1.5029839 -1.5535053 -1.5988639 -1.4645683 -1.516411 -1.6458346999999998 -1.5075231000000002 -1.4002917 -1.3866241000000001 -1.2240926 -1.0355959000000001 -0.88889497 -0.67086707 -0.50035903 -0.30486991 -0.042425979 0.011476354 0.10149345 0.25839805 0.1373443 0.10318456 0.25942847 0.28884496 0.37561229 0.45706007 0.24608338 0.1670573 0.34107174 0.26229991 0.22048166 0.36496225 0.28835255 0.28827916 0.40272726
-1.0159285 -1.0660428 -1.1633753999999998 -1.2074661 -1.2347116000000002 -1.3248416 -1.3649445 -1.3312292 -1.356372 -1.3705120000000002 -1.3339249 -1.3781622 -1.3952861 -1.4009589 -1.4920148000000002 -1.5029839 -1.5535053 -1.5988639 -1.4645683 -1.516411 -1.6458346999999998 -1.5075231000000002 -1.4002917 -1.3866241000000001 -1.2240926 -1.0355959000000001 -0.88889497 -0.67086707 -0.50035903 -0.30486991 -0.042425979 0.011476354 0.10149345 0.25839805 0.1373443 0.10318456 0.25942847 0.28884496 0.37561229 0.45706007 0.24608338 0.1670573 0.34107174 0.26229991 0.22048166 0.36496225 0.28835255 0.28827916 0.40272726 0.36496225
-1.0660428 -1.1633753999999998 -1.2074661 -1.2347116000000002 -1.3248416 -1.3649445 -1.3312292 -1.356372 -1.3705120000000002 -1.3339249 -1.3781622 -1.3952861 -1.4009589 -1.4920148000000002 -1.5029839 -1.5535053 -1.5988639 -1.4645683 -1.516411 -1.6458346999999998 -1.5075231000000002 -1.4002917 -1.3866241000000001 -1.2240926 -1.0355959000000001 -0.88889497 -0.67086707 -0.50035903 -0.30486991 -0.042425979 0.011476354 0.10149345 0.25839805 0.1373443 0.10318456 0.25942847 0.28884496 0.37561229 0.45706007 0.24608338 0.1670573 0.34107174 0.26229991 0.22048166 0.36496225 0.28835255 0.28827916 0.40272726 0.36496225 0.43108901
-1.1633753999999998 -1.2074661 -1.2347116000000002 -1.3248416 -1.3649445 -1.3312292 -1.356372 -1.3705120000000002 -1.3339249 -1.3781622 -1.3952861 -1.4009589 -1.4920148000000002 -1.5029839 -1.5535053 -1.5988639 -1.4645683 -1.516411 -1.6458346999999998 -1.5075231000000002 -1.4002917 -1.3866241000000001 -1.2240926 -1.0355959000000001 -0.88889497 -0.67086707 -0.50035903 -0.30486991 -0.042425979 0.011476354 0.10149345 0.25839805 0.1373443 0.10318456 0.25942847 0.28884496 0.37561229 0.45706007 0.24608338 0.1670573 0.34107174 0.26229991 0.22048166 0.36496225 0.28835255 0.28827916 0.40272726 0.36496225 0.43108901 0.47695407
-1.2074661 -1.2347116000000002 -1.3248416 -1.3649445 -1.3312292 -1.356372 -1.3705120000000002 -1.3339249 -1.3781622 -1.3952861 -1.4009589 -1.4920148000000002 -1.5029839 -1.5535053 -1.5988639 -1.4645683 -1.516411 -1.6458346999999998 -1.5075231000000002 -1.4002917 -1.3866241000000001 -1.2240926 -1.0355959000000001 -0.88889497 -0.67086707 -0.50035903 -0.30486991 -0.042425979 0.011476354 0.10149345 0.25839805 0.1373443 0.10318456 0.25942847 0.28884496 0.37561229 0.45706007 0.24608338 0.1670573 0.34107174 0.26229991 0.22048166 0.36496225 0.28835255 0.28827916 0.40272726 0.36496225 0.43108901 0.47695407 0.34008248
-1.2347116000000002 -1.3248416 -1.3649445 -1.3312292 -1.356372 -1.3705120000000002 -1.3339249 -1.3781622 -1.3952861 -1.4009589 -1.4920148000000002 -1.5029839 -1.5535053 -1.5988639 -1.4645683 -1.516411 -1.6458346999999998 -1.5075231000000002 -1.4002917 -1.3866241000000001 -1.2240926 -1.0355959000000001 -0.88889497 -0.67086707 -0.50035903 -0.30486991 -0.042425979 0.011476354 0.10149345 0.25839805 0.1373443 0.10318456 0.25942847 0.28884496 0.37561229 0.45706007 0.24608338 0.1670573 0.34107174 0.26229991 0.22048166 0.36496225 0.28835255 0.28827916 0.40272726 0.36496225 0.43108901 0.47695407 0.34008248 0.48674992
-1.3248416 -1.3649445 -1.3312292 -1.356372 -1.3705120000000002 -1.3339249 -1.3781622 -1.3952861 -1.4009589 -1.4920148000000002 -1.5029839 -1.5535053 -1.5988639 -1.4645683 -1.516411 -1.6458346999999998 -1.5075231000000002 -1.4002917 -1.3866241000000001 -1.2240926 -1.0355959000000001 -0.88889497 -0.67086707 -0.50035903 -0.30486991 -0.042425979 0.011476354 0.10149345 0.25839805 0.1373443 0.10318456 0.25942847 0.28884496 0.37561229 0.45706007 0.24608338 0.1670573 0.34107174 0.26229991 0.22048166 0.36496225 0.28835255 0.28827916 0.40272726 0.36496225 0.43108901 0.47695407 0.34008248 0.48674992 0.74087597
-1.3649445 -1.3312292 -1.356372 -1.3705120000000002 -1.3339249 -1.3781622 -1.3952861 -1.4009589 -1.4920148000000002 -1.5029839 -1.5535053 -1.5988639 -1.4645683 -1.516411 -1.6458346999999998 -1.5075231000000002 -1.4002917 -1.3866241000000001 -1.2240926 -1.0355959000000001 -0.88889497 -0.67086707 -0.50035903 -0.30486991 -0.042425979 0.011476354 0.10149345 0.25839805 0.1373443 0.10318456 0.25942847 0.28884496 0.37561229 0.45706007 0.24608338 0.1670573 0.34107174 0.26229991 0.22048166 0.36496225 0.28835255 0.28827916 0.40272726 0.36496225 0.43108901 0.47695407 0.34008248 0.48674992 0.74087597 0.60662226
-1.3312292 -1.356372 -1.3705120000000002 -1.3339249 -1.3781622 -1.3952861 -1.4009589 -1.4920148000000002 -1.5029839 -1.5535053 -1.5988639 -1.4645683 -1.516411 -1.6458346999999998 -1.5075231000000002 -1.4002917 -1.3866241000000001 -1.2240926 -1.0355959000000001 -0.88889497 -0.67086707 -0.50035903 -0.30486991 -0.042425979 0.011476354 0.10149345 0.25839805 0.1373443 0.10318456 0.25942847 0.28884496 0.37561229 0.45706007 0.24608338 0.1670573 0.34107174 0.26229991 0.22048166 0.36496225 0.28835255 0.28827916 0.40272726 0.36496225 0.43108901 0.47695407 0.34008248 0.48674992 0.74087597 0.60662226 0.64531556
-1.356372 -1.3705120000000002 -1.3339249 -1.3781622 -1.3952861 -1.4009589 -1.4920148000000002 -1.5029839 -1.5535053 -1.5988639 -1.4645683 -1.516411 -1.6458346999999998 -1.5075231000000002 -1.4002917 -1.3866241000000001 -1.2240926 -1.0355959000000001 -0.88889497 -0.67086707 -0.50035903 -0.30486991 -0.042425979 0.011476354 0.10149345 0.25839805 0.1373443 0.10318456 0.25942847 0.28884496 0.37561229 0.45706007 0.24608338 0.1670573 0.34107174 0.26229991 0.22048166 0.36496225 0.28835255 0.28827916 0.40272726 0.36496225 0.43108901 0.47695407 0.34008248 0.48674992 0.74087597 0.60662226 0.64531556 0.88255983
-1.3705120000000002 -1.3339249 -1.3781622 -1.3952861 -1.4009589 -1.4920148000000002 -1.5029839 -1.5535053 -1.5988639 -1.4645683 -1.516411 -1.6458346999999998 -1.5075231000000002 -1.4002917 -1.3866241000000001 -1.2240926 -1.0355959000000001 -0.88889497 -0.67086707 -0.50035903 -0.30486991 -0.042425979 0.011476354 0.10149345 0.25839805 0.1373443 0.10318456 0.25942847 0.28884496 0.37561229 0.45706007 0.24608338 0.1670573 0.34107174 0.26229991 0.22048166 0.36496225 0.28835255 0.28827916 0.40272726 0.36496225 0.43108901 0.47695407 0.34008248 0.48674992 0.74087597 0.60662226 0.64531556 0.88255983 0.70573837
-1.3339249 -1.3781622 -1.3952861 -1.4009589 -1.4920148000000002 -1.5029839 -1.5535053 -1.5988639 -1.4645683 -1.516411 -1.6458346999999998 -1.5075231000000002 -1.4002917 -1.3866241000000001 -1.2240926 -1.0355959000000001 -0.88889497 -0.67086707 -0.50035903 -0.30486991 -0.042425979 0.011476354 0.10149345 0.25839805 0.1373443 0.10318456 0.25942847 0.28884496 0.37561229 0.45706007 0.24608338 0.1670573 0.34107174 0.26229991 0.22048166 0.36496225 0.28835255 0.28827916 0.40272726 0.36496225 0.43108901 0.47695407 0.34008248 0.48674992 0.74087597 0.60662226 0.64531556 0.88255983 0.70573837 0.56069736
-1.3781622 -1.3952861 -1.4009589 -1.4920148000000002 -1.5029839 -1.5535053 -1.5988639 -1.4645683 -1.516411 -1.6458346999999998 -1.5075231000000002 -1.4002917 -1.3866241000000001 -1.2240926 -1.0355959000000001 -0.88889497 -0.67086707 -0.50035903 -0.30486991 -0.042425979 0.011476354 0.10149345 0.25839805 0.1373443 0.10318456 0.25942847 0.28884496 0.37561229 0.45706007 0.24608338 0.1670573 0.34107174 0.26229991 0.22048166 0.36496225 0.28835255 0.28827916 0.40272726 0.36496225 0.43108901 0.47695407 0.34008248 0.48674992 0.74087597 0.60662226 0.64531556 0.88255983 0.70573837 0.56069736 0.5381514000000001
-1.3952861 -1.4009589 -1.4920148000000002 -1.5029839 -1.5535053 -1.5988639 -1.4645683 -1.516411 -1.6458346999999998 -1.5075231000000002 -1.4002917 -1.3866241000000001 -1.2240926 -1.0355959000000001 -0.88889497 -0.67086707 -0.50035903 -0.30486991 -0.042425979 0.011476354 0.10149345 0.25839805 0.1373443 0.10318456 0.25942847 0.28884496 0.37561229 0.45706007 0.24608338 0.1670573 0.34107174 0.26229991 0.22048166 0.36496225 0.28835255 0.28827916 0.40272726 0.36496225 0.43108901 0.47695407 0.34008248 0.48674992 0.74087597 0.60662226 0.64531556 0.88255983 0.70573837 0.56069736 0.5381514000000001 0.42585609
-1.4009589 -1.4920148000000002 -1.5029839 -1.5535053 -1.5988639 -1.4645683 -1.516411 -1.6458346999999998 -1.5075231000000002 -1.4002917 -1.3866241000000001 -1.2240926 -1.0355959000000001 -0.88889497 -0.67086707 -0.50035903 -0.30486991 -0.042425979 0.011476354 0.10149345 0.25839805 0.1373443 0.10318456 0.25942847 0.28884496 0.37561229 0.45706007 0.24608338 0.1670573 0.34107174 0.26229991 0.22048166 0.36496225 0.28835255 0.28827916 0.40272726 0.36496225 0.43108901 0.47695407 0.34008248 0.48674992 0.74087597 0.60662226 0.64531556 0.88255983 0.70573837 0.56069736 0.5381514000000001 0.42585609 0.5963963000000001
-1.4920148000000002 -1.5029839 -1.5535053 -1.5988639 -1.4645683 -1.516411 -1.6458346999999998 -1.5075231000000002 -1.4002917 -1.3866241000000001 -1.2240926 -1.0355959000000001 -0.88889497 -0.67086707 -0.50035903 -0.30486991 -0.042425979 0.011476354 0.10149345 0.25839805 0.1373443 0.10318456 0.25942847 0.28884496 0.37561229 0.45706007 0.24608338 0.1670573 0.34107174 0.26229991 0.22048166 0.36496225 0.28835255 0.28827916 0.40272726 0.36496225 0.43108901 0.47695407 0.34008248 0.48674992 0.74087597 0.60662226 0.64531556 0.88255983 0.70573837 0.56069736 0.5381514000000001 0.42585609 0.5963963000000001 0.77936324
-1.5029839 -1.5535053 -1.5988639 -1.4645683 -1.516411 -1.6458346999999998 -1.5075231000000002 -1.4002917 -1.3866241000000001 -1.2240926 -1.0355959000000001 -0.88889497 -0.67086707 -0.50035903 -0.30486991 -0.042425979 0.011476354 0.10149345 0.25839805 0.1373443 0.10318456 0.25942847 0.28884496 0.37561229 0.45706007 0.24608338 0.1670573 0.34107174 0.26229991 0.22048166 0.36496225 0.28835255 0.28827916 0.40272726 0.36496225 0.43108901 0.47695407 0.34008248 0.48674992 0.74087597 0.60662226 0.64531556 0.88255983 0.70573837 0.56069736 0.5381514000000001 0.42585609 0.5963963000000001 0.77936324 0.73281109
-1.5535053 -1.5988639 -1.4645683 -1.516411 -1.6458346999999998 -1.5075231000000002 -1.4002917 -1.3866241000000001 -1.2240926 -1.0355959000000001 -0.88889497 -0.67086707 -0.50035903 -0.30486991 -0.042425979 0.011476354 0.10149345 0.25839805 0.1373443 0.10318456 0.25942847 0.28884496 0.37561229 0.45706007 0.24608338 0.1670573 0.34107174 0.26229991 0.22048166 0.36496225 0.28835255 0.28827916 0.40272726 0.36496225 0.43108901 0.47695407 0.34008248 0.48674992 0.74087597 0.60662226 0.64531556 0.88255983 0.70573837 0.56069736 0.5381514000000001 0.42585609 0.5963963000000001 0.77936324 0.73281109 0.62376104
-1.5988639 -1.4645683 -1.516411 -1.6458346999999998 -1.5075231000000002 -1.4002917 -1.3866241000000001 -1.2240926 -1.0355959000000001 -0.88889497 -0.67086707 -0.50035903 -0.30486991 -0.042425979 0.011476354 0.10149345 0.25839805 0.1373443 0.10318456 0.25942847 0.28884496 0.37561229 0.45706007 0.24608338 0.1670573 0.34107174 0.26229991 0.22048166 0.36496225 0.28835255 0.28827916 0.40272726 0.36496225 0.43108901 0.47695407 0.34008248 0.48674992 0.74087597 0.60662226 0.64531556 0.88255983 0.70573837 0.56069736 0.5381514000000001 0.42585609 0.5963963000000001 0.77936324 0.73281109 0.62376104 0.49063238
-1.4645683 -1.516411 -1.6458346999999998 -1.5075231000000002 -1.4002917 -1.3866241000000001 -1.2240926 -1.0355959000000001 -0.88889497 -0.67086707 -0.50035903 -0.30486991 -0.042425979 0.011476354 0.10149345 0.25839805 0.1373443 0.10318456 0.25942847 0.28884496 0.37561229 0.45706007 0.24608338 0.1670573 0.34107174 0.26229991 0.22048166 0.36496225 0.28835255 0.28827916 0.40272726 0.36496225 0.43108901 0.47695407 0.34008248 0.48674992 0.74087597 0.60662226 0.64531556 0.88255983 0.70573837 0.56069736 0.5381514000000001 0.42585609 0.5963963000000001 0.77936324 0.73281109 0.62376104 0.49063238 0.43944916
-1.516411 -1.6458346999999998 -1.5075231000000002 -1.4002917 -1.3866241000000001 -1.2240926 -1.0355959000000001 -0.88889497 -0.67086707 -0.50035903 -0.30486991 -0.042425979 0.011476354 0.10149345 0.25839805 0.1373443 0.10318456 0.25942847 0.28884496 0.37561229 0.45706007 0.24608338 0.1670573 0.34107174 0.26229991 0.22048166 0.36496225 0.28835255 0.28827916 0.40272726 0.36496225 0.43108901 0.47695407 0.34008248 0.48674992 0.74087597 0.60662226 0.64531556 0.88255983 0.70573837 0.56069736 0.5381514000000001 0.42585609 0.5963963000000001 0.77936324 0.73281109 0.62376104 0.49063238 0.43944916 0.25488385
-1.6458346999999998 -1.5075231000000002 -1.4002917 -1.3866241000000001 -1.2240926 -1.0355959000000001 -0.88889497 -0.67086707 -0.50035903 -0.30486991 -0.042425979 0.011476354 0.10149345 0.25839805 0.1373443 0.10318456 0.25942847 0.28884496 0.37561229 0.45706007 0.24608338 0.1670573 0.34107174 0.26229991 0.22048166 0.36496225 0.28835255 0.28827916 0.40272726 0.36496225 0.43108901 0.47695407 0.34008248 0.48674992 0.74087597 0.60662226 0.64531556 0.88255983 0.70573837 0.56069736 0.5381514000000001 0.42585609 0.5963963000000001 0.77936324 0.73281109 0.62376104 0.49063238 0.43944916 0.25488385 0.19750421
-1.5075231000000002 -1.4002917 -1.3866241000000001 -1.2240926 -1.0355959000000001 -0.88889497 -0.67086707 -0.50035903 -0.30486991 -0.042425979 0.011476354 0.10149345 0.25839805 0.1373443 0.10318456 0.25942847 0.28884496 0.37561229 0.45706007 0.24608338 0.1670573 0.34107174 0.26229991 0.22048166 0.36496225 0.28835255 0.28827916 0.40272726 0.36496225 0.43108901 0.47695407 0.34008248 0.48674992 0.74087597 0.60662226 0.64531556 0.88255983 0.70573837 0.56069736 0.5381514000000001 0.42585609 0.5963963000000001 0.77936324 0.73281109 0.62376104 0.49063238 0.43944916 0.25488385 0.19750421 0.40071896
-1.4002917 -1.3866241000000001 -1.2240926 -1.0355959000000001 -0.88889497 -0.67086707 -0.50035903 -0.30486991 -0.042425979 0.011476354 0.10149345 0.25839805 0.1373443 0.10318456 0.25942847 0.28884496 0.37561229 0.45706007 0.24608338 0.1670573 0.34107174 0.26229991 0.22048166 0.36496225 0.28835255 0.28827916 0.40272726 0.36496225 0.43108901 0.47695407 0.34008248 0.48674992 0.74087597 0.60662226 0.64531556 0.88255983 0.70573837 0.56069736 0.5381514000000001 0.42585609 0.5963963000000001 0.77936324 0.73281109 0.62376104 0.49063238 0.43944916 0.25488385 0.19750421 0.40071896 0.24904405
-1.3866241000000001 -1.2240926 -1.0355959000000001 -0.88889497 -0.67086707 -0.50035903 -0.30486991 -0.042425979 0.011476354 0.10149345 0.25839805 0.1373443 0.10318456 0.25942847 0.28884496 0.37561229 0.45706007 0.24608338 0.1670573 0.34107174 0.26229991 0.22048166 0.36496225 0.28835255 0.28827916 0.40272726 0.36496225 0.43108901 0.47695407 0.34008248 0.48674992 0.74087597 0.60662226 0.64531556 0.88255983 0.70573837 0.56069736 0.5381514000000001 0.42585609 0.5963963000000001 0.77936324 0.73281109 0.62376104 0.49063238 0.43944916 0.25488385 0.19750421 0.40071896 0.24904405 0.20962139
-1.2240926 -1.0355959000000001 -0.88889497 -0.67086707 -0.50035903 -0.30486991 -0.042425979 0.011476354 0.10149345 0.25839805 0.1373443 0.10318456 0.25942847 0.28884496 0.37561229 0.45706007 0.24608338 0.1670573 0.34107174 0.26229991 0.22048166 0.36496225 0.28835255 0.28827916 0.40272726 0.36496225 0.43108901 0.47695407 0.34008248 0.48674992 0.74087597 0.60662226 0.64531556 0.88255983 0.70573837 0.56069736 0.5381514000000001 0.42585609 0.5963963000000001 0.77936324 0.73281109 0.62376104 0.49063238 0.43944916 0.25488385 0.19750421 0.40071896 0.24904405 0.20962139 0.36496225
-1.0355959000000001 -0.88889497 -0.67086707 -0.50035903 -0.30486991 -0.042425979 0.011476354 0.10149345 0.25839805 0.1373443 0.10318456 0.25942847 0.28884496 0.37561229 0.45706007 0.24608338 0.1670573 0.34107174 0.26229991 0.22048166 0.36496225 0.28835255 0.28827916 0.40272726 0.36496225 0.43108901 0.47695407 0.34008248 0.48674992 0.74087597 0.60662226 0.64531556 0.88255983 0.70573837 0.56069736 0.5381514000000001 0.42585609 0.5963963000000001 0.77936324 0.73281109 0.62376104 0.49063238 0.43944916 0.25488385 0.19750421 0.40071896 0.24904405 0.20962139 0.36496225 0.12984442
-0.88889497 -0.67086707 -0.50035903 -0.30486991 -0.042425979 0.011476354 0.10149345 0.25839805 0.1373443 0.10318456 0.25942847 0.28884496 0.37561229 0.45706007 0.24608338 0.1670573 0.34107174 0.26229991 0.22048166 0.36496225 0.28835255 0.28827916 0.40272726 0.36496225 0.43108901 0.47695407 0.34008248 0.48674992 0.74087597 0.60662226 0.64531556 0.88255983 0.70573837 0.56069736 0.5381514000000001 0.42585609 0.5963963000000001 0.77936324 0.73281109 0.62376104 0.49063238 0.43944916 0.25488385 0.19750421 0.40071896 0.24904405 0.20962139 0.36496225 0.12984442 0.24432215
-0.67086707 -0.50035903 -0.30486991 -0.042425979 0.011476354 0.10149345 0.25839805 0.1373443 0.10318456 0.25942847 0.28884496 0.37561229 0.45706007 0.24608338 0.1670573 0.34107174 0.26229991 0.22048166 0.36496225 0.28835255 0.28827916 0.40272726 0.36496225 0.43108901 0.47695407 0.34008248 0.48674992 0.74087597 0.60662226 0.64531556 0.88255983 0.70573837 0.56069736 0.5381514000000001 0.42585609 0.5963963000000001 0.77936324 0.73281109 0.62376104 0.49063238 0.43944916 0.25488385 0.19750421 0.40071896 0.24904405 0.20962139 0.36496225 0.12984442 0.24432215 0.58525362
-0.50035903 -0.30486991 -0.042425979 0.011476354 0.10149345 0.25839805 0.1373443 0.10318456 0.25942847 0.28884496 0.37561229 0.45706007 0.24608338 0.1670573 0.34107174 0.26229991 0.22048166 0.36496225 0.28835255 0.28827916 0.40272726 0.36496225 0.43108901 0.47695407 0.34008248 0.48674992 0.74087597 0.60662226 0.64531556 0.88255983 0.70573837 0.56069736 0.5381514000000001 0.42585609 0.5963963000000001 0.77936324 0.73281109 0.62376104 0.49063238 0.43944916 0.25488385 0.19750421 0.40071896 0.24904405 0.20962139 0.36496225 0.12984442 0.24432215 0.58525362 0.54764375
-0.30486991 -0.042425979 0.011476354 0.10149345 0.25839805 0.1373443 0.10318456 0.25942847 0.28884496 0.37561229 0.45706007 0.24608338 0.1670573 0.34107174 0.26229991 0.22048166 0.36496225 0.28835255 0.28827916 0.40272726 0.36496225 0.43108901 0.47695407 0.34008248 0.48674992 0.74087597 0.60662226 0.64531556 0.88255983 0.70573837 0.56069736 0.5381514000000001 0.42585609 0.5963963000000001 0.77936324 0.73281109 0.62376104 0.49063238 0.43944916 0.25488385 0.19750421 0.40071896 0.24904405 0.20962139 0.36496225 0.12984442 0.24432215 0.58525362 0.54764375 1.0933019
-0.042425979 0.011476354 0.10149345 0.25839805 0.1373443 0.10318456 0.25942847 0.28884496 0.37561229 0.45706007 0.24608338 0.1670573 0.34107174 0.26229991 0.22048166 0.36496225 0.28835255 0.28827916 0.40272726 0.36496225 0.43108901 0.47695407 0.34008248 0.48674992 0.74087597 0.60662226 0.64531556 0.88255983 0.70573837 0.56069736 0.5381514000000001 0.42585609 0.5963963000000001 0.77936324 0.73281109 0.62376104 0.49063238 0.43944916 0.25488385 0.19750421 0.40071896 0.24904405 0.20962139 0.36496225 0.12984442 0.24432215 0.58525362 0.54764375 1.0933019 2.1507955
0.011476354 0.10149345 0.25839805 0.1373443 0.10318456 0.25942847 0.28884496 0.37561229 0.45706007 0.24608338 0.1670573 0.34107174 0.26229991 0.22048166 0.36496225 0.28835255 0.28827916 0.40272726 0.36496225 0.43108901 0.47695407 0.34008248 0.48674992 0.74087597 0.60662226 0.64531556 0.88255983 0.70573837 0.56069736 0.5381514000000001 0.42585609 0.5963963000000001 0.77936324 0.73281109 0.62376104 0.49063238 0.43944916 0.25488385 0.19750421 0.40071896 0.24904405 0.20962139 0.36496225 0.12984442 0.24432215 0.58525362 0.54764375 1.0933019 2.1507955 2.3850658
0.10149345 0.25839805 0.1373443 0.10318456 0.25942847 0.28884496 0.37561229 0.45706007 0.24608338 0.1670573 0.34107174 0.26229991 0.22048166 0.36496225 0.28835255 0.28827916 0.40272726 0.36496225 0.43108901 0.47695407 0.34008248 0.48674992 0.74087597 0.60662226 0.64531556 0.88255983 0.70573837 0.56069736 0.5381514000000001 0.42585609 0.5963963000000001 0.77936324 0.73281109 0.62376104 0.49063238 0.43944916 0.25488385 0.19750421 0.40071896 0.24904405 0.20962139 0.36496225 0.12984442 0.24432215 0.58525362 0.54764375 1.0933019 2.1507955 2.3850658 1.9938723000000003
0.25839805 0.1373443 0.10318456 0.25942847 0.28884496 0.37561229 0.45706007 0.24608338 0.1670573 0.34107174 0.26229991 0.22048166 0.36496225 0.28835255 0.28827916 0.40272726 0.36496225 0.43108901 0.47695407 0.34008248 0.48674992 0.74087597 0.60662226 0.64531556 0.88255983 0.70573837 0.56069736 0.5381514000000001 0.42585609 0.5963963000000001 0.77936324 0.73281109 0.62376104 0.49063238 0.43944916 0.25488385 0.19750421 0.40071896 0.24904405 0.20962139 0.36496225 0.12984442 0.24432215 0.58525362 0.54764375 1.0933019 2.1507955 2.3850658 1.9938723000000003 1.7602863000000002
0.1373443 0.10318456 0.25942847 0.28884496 0.37561229 0.45706007 0.24608338 0.1670573 0.34107174 0.26229991 0.22048166 0.36496225 0.28835255 0.28827916 0.40272726 0.36496225 0.43108901 0.47695407 0.34008248 0.48674992 0.74087597 0.60662226 0.64531556 0.88255983 0.70573837 0.56069736 0.5381514000000001 0.42585609 0.5963963000000001 0.77936324 0.73281109 0.62376104 0.49063238 0.43944916 0.25488385 0.19750421 0.40071896 0.24904405 0.20962139 0.36496225 0.12984442 0.24432215 0.58525362 0.54764375 1.0933019 2.1507955 2.3850658 1.9938723000000003 1.7602863000000002 1.2692178
0.10318456 0.25942847 0.28884496 0.37561229 0.45706007 0.24608338 0.1670573 0.34107174 0.26229991 0.22048166 0.36496225 0.28835255 0.28827916 0.40272726 0.36496225 0.43108901 0.47695407 0.34008248 0.48674992 0.74087597 0.60662226 0.64531556 0.88255983 0.70573837 0.56069736 0.5381514000000001 0.42585609 0.5963963000000001 0.77936324 0.73281109 0.62376104 0.49063238 0.43944916 0.25488385 0.19750421 0.40071896 0.24904405 0.20962139 0.36496225 0.12984442 0.24432215 0.58525362 0.54764375 1.0933019 2.1507955 2.3850658 1.9938723000000003 1.7602863000000002 1.2692178 0.39910334
