0.31664616 0.24319908 0.37047144 1.0637381000000001 1.6781871 1.7595575 1.6977171999999998 1.6121590000000001 1.1681877 0.49995704 -0.022362532999999997 -0.23531816 -0.11827251 -0.071027356 -0.32298644 -0.43356208 -0.31865971 -0.29565486 -0.41773284 -0.68247969 -0.88183977 -0.84332048 -0.88365177 -1.0300185 -1.0552655 -1.1686368 -1.3639905 -1.3376111000000002 -1.2612936000000001 -1.4097822 -1.6345041 -1.7032377 -1.6770249 -1.7826278000000002 -1.9968716 -2.0563716 -1.9378808999999997 -1.8794116 -1.9154266 -1.8455069 -1.658135 -1.5094832 -1.3934261000000001 -1.2328683 -1.0243483 -0.76864001 -0.51129373 -0.30956399 -0.13196163 0.035054082
0.24319908 0.37047144 1.0637381000000001 1.6781871 1.7595575 1.6977171999999998 1.6121590000000001 1.1681877 0.49995704 -0.022362532999999997 -0.23531816 -0.11827251 -0.071027356 -0.32298644 -0.43356208 -0.31865971 -0.29565486 -0.41773284 -0.68247969 -0.88183977 -0.84332048 -0.88365177 -1.0300185 -1.0552655 -1.1686368 -1.3639905 -1.3376111000000002 -1.2612936000000001 -1.4097822 -1.6345041 -1.7032377 -1.6770249 -1.7826278000000002 -1.9968716 -2.0563716 -1.9378808999999997 -1.8794116 -1.9154266 -1.8455069 -1.658135 -1.5094832 -1.3934261000000001 -1.2328683 -1.0243483 -0.76864001 -0.51129373 -0.30956399 -0.13196163 0.035054082 0.14215881
0.37047144 1.0637381000000001 1.6781871 1.7595575 1.6977171999999998 1.6121590000000001 1.1681877 0.49995704 -0.022362532999999997 -0.23531816 -0.11827251 -0.071027356 -0.32298644 -0.43356208 -0.31865971 -0.29565486 -0.41773284 -0.68247969 -0.88183977 -0.84332048 -0.88365177 -1.0300185 -1.0552655 -1.1686368 -1.3639905 -1.3376111000000002 -1.2612936000000001 -1.4097822 -1.6345041 -1.7032377 -1.6770249 -1.7826278000000002 -1.9968716 -2.0563716 -1.9378808999999997 -1.8794116 -1.9154266 -1.8455069 -1.658135 -1.5094832 -1.3934261000000001 -1.2328683 -1.0243483 -0.76864001 -0.51129373 -0.30956399 -0.13196163 0.035054082 0.14215881 0.22580665
1.0637381000000001 1.6781871 1.7595575 1.6977171999999998 1.6121590000000001 1.1681877 0.49995704 -0.022362532999999997 -0.23531816 -0.11827251 -0.071027356 -0.32298644 -0.43356208 -0.31865971 -0.29565486 -0.41773284 -0.68247969 -0.88183977 -0.84332048 -0.88365177 -1.0300185 -1.0552655 -1.1686368 -1.3639905 -1.3376111000000002 -1.2612936000000001 -1.4097822 -1.6345041 -1.7032377 -1.6770249 -1.7826278000000002 -1.9968716 -2.0563716 -1.9378808999999997 -1.8794116 -1.9154266 -1.8455069 -1.658135 -1.5094832 -1.3934261000000001 -1.2328683 -1.0243483 -0.76864001 -0.51129373 -0.30956399 -0.13196163 0.035054082 0.14215881 0.22580665 0.34369036
1.6781871 1.7595575 1.6977171999999998 1.6121590000000001 1.1681877 0.49995704 -0.022362532999999997 -0.23531816 -0.11827251 -0.071027356 -0.32298644 -0.43356208 -0.31865971 -0.29565486 -0.41773284 -0.68247969 -0.88183977 -0.84332048 -0.88365177 -1.0300185 -1.0552655 -1.1686368 -1.3639905 -1.3376111000000002 -1.2612936000000001 -1.4097822 -1.6345041 -1.7032377 -1.6770249 -1.7826278000000002 -1.9968716 -2.0563716 -1.9378808999999997 -1.8794116 -1.9154266 -1.8455069 -1.658135 -1.5094832 -1.3934261000000001 -1.2328683 -1.0243483 -0.76864001 -0.51129373 -0.30956399 -0.13196163 0.035054082 0.14215881 0.22580665 0.34369036 0.42858907
1.7595575 1.6977171999999998 1.6121590000000001 1.1681877 0.49995704 -0.022362532999999997 -0.23531816 -0.11827251 -0.071027356 -0.32298644 -0.43356208 -0.31865971 -0.29565486 -0.41773284 -0.68247969 -0.88183977 -0.84332048 -0.88365177 -1.0300185 -1.0552655 -1.1686368 -1.3639905 -1.3376111000000002 -1.2612936000000001 -1.4097822 -1.6345041 -1.7032377 -1.6770249 -1.7826278000000002 -1.9968716 -2.0563716 -1.9378808999999997 -1.8794116 -1.9154266 -1.8455069 -1.658135 -1.5094832 -1.3934261000000001 -1.2328683 -1.0243483 -0.76864001 -0.51129373 -0.30956399 -0.13196163 0.035054082 0.14215881 0.22580665 0.34369036 0.42858907 0.4695677
1.6977171999999998 1.6121590000000001 1.1681877 0.49995704 -0.022362532999999997 -0.23531816 -0.11827251 -0.071027356 -0.32298644 -0.43356208 -0.31865971 -0.29565486 -0.41773284 -0.68247969 -0.88183977 -0.84332048 -0.88365177 -1.0300185 -1.0552655 -1.1686368 -1.3639905 -1.3376111000000002 -1.2612936000000001 -1.4097822 -1.6345041 -1.7032377 -1.6770249 -1.7826278000000002 -1.9968716 -2.0563716 -1.9378808999999997 -1.8794116 -1.9154266 -1.8455069 -1.658135 -1.5094832 -1.3934261000000001 -1.2328683 -1.0243483 -0.76864001 -0.51129373 -0.30956399 -0.13196163 0.035054082 0.14215881 0.22580665 0.34369036 0.42858907 0.4695677 0.56978192
1.6121590000000001 1.1681877 0.49995704 -0.022362532999999997 -0.23531816 -0.11827251 -0.071027356 -0.32298644 -0.43356208 -0.31865971 -0.29565486 -0.41773284 -0.68247969 -0.88183977 -0.84332048 -0.88365177 -1.0300185 -1.0552655 -1.1686368 -1.3639905 -1.3376111000000002 -1.2612936000000001 -1.4097822 -1.6345041 -1.7032377 -1.6770249 -1.7826278000000002 -1.9968716 -2.0563716 -1.9378808999999997 -1.8794116 -1.9154266 -1.8455069 -1.658135 -1.5094832 -1.3934261000000001 -1.2328683 -1.0243483 -0.76864001 -0.51129373 -0.30956399 -0.13196163 0.035054082 0.14215881 0.22580665 0.34369036 0.42858907 0.4695677 0.56978192 0.67566632
1.1681877 0.49995704 -0.022362532999999997 -0.23531816 -0.11827251 -0.071027356 -0.32298644 -0.43356208 -0.31865971 -0.29565486 -0.41773284 -0.68247969 -0.88183977 -0.84332048 -0.88365177 -1.0300185 -1.0552655 -1.1686368 -1.3639905 -1.3376111000000002 -1.2612936000000001 -1.4097822 -1.6345041 -1.7032377 -1.6770249 -1.7826278000000002 -1.9968716 -2.0563716 -1.9378808999999997 -1.8794116 -1.9154266 -1.8455069 -1.658135 -1.5094832 -1.3934261000000001 -1.2328683 -1.0243483 -0.76864001 -0.51129373 -0.30956399 -0.13196163 0.035054082 0.14215881 0.22580665 0.34369036 0.42858907 0.4695677 0.56978192 0.67566632 0.69988535
0.49995704 -0.022362532999999997 -0.23531816 -0.11827251 -0.071027356 -0.32298644 -0.43356208 -0.31865971 -0.29565486 -0.41773284 -0.68247969 -0.88183977 -0.84332048 -0.88365177 -1.0300185 -1.0552655 -1.1686368 -1.3639905 -1.3376111000000002 -1.2612936000000001 -1.4097822 -1.6345041 -1.7032377 -1.6770249 -1.7826278000000002 -1.9968716 -2.0563716 -1.9378808999999997 -1.8794116 -1.9154266 -1.8455069 -1.658135 -1.5094832 -1.3934261000000001 -1.2328683 -1.0243483 -0.76864001 -0.51129373 -0.30956399 -0.13196163 0.035054082 0.14215881 0.22580665 0.34369036 0.42858907 0.4695677 0.56978192 0.67566632 0.69988535 0.73256075
-0.022362532999999997 -0.23531816 -0.11827251 -0.071027356 -0.32298644 -0.43356208 -0.31865971 -0.29565486 -0.41773284 -0.68247969 -0.88183977 -0.84332048 -0.88365177 -1.0300185 -1.0552655 -1.1686368 -1.3639905 -1.3376111000000002 -1.2612936000000001 -1.4097822 -1.6345041 -1.7032377 -1.6770249 -1.7826278000000002 -1.9968716 -2.0563716 -1.9378808999999997 -1.8794116 -1.9154266 -1.8455069 -1.658135 -1.5094832 -1.3934261000000001 -1.2328683 -1.0243483 -0.76864001 -0.51129373 -0.30956399 -0.13196163 0.035054082 0.14215881 0.22580665 0.34369036 0.42858907 0.4695677 0.56978192 0.67566632 0.69988535 0.73256075 0.7716651999999999
-0.23531816 -0.11827251 -0.071027356 -0.32298644 -0.43356208 -0.31865971 -0.29565486 -0.41773284 -0.68247969 -0.88183977 -0.84332048 -0.88365177 -1.0300185 -1.0552655 -1.1686368 -1.3639905 -1.3376111000000002 -1.2612936000000001 -1.4097822 -1.6345041 -1.7032377 -1.6770249 -1.7826278000000002 -1.9968716 -2.0563716 -1.9378808999999997 -1.8794116 -1.9154266 -1.8455069 -1.658135 -1.5094832 -1.3934261000000001 -1.2328683 -1.0243483 -0.76864001 -0.51129373 -0.30956399 -0.13196163 0.035054082 0.14215881 0.22580665 0.34369036 0.42858907 0.4695677 0.56978192 0.67566632 0.69988535 0.73256075 0.7716651999999999 0.73812943
-0.11827251 -0.071027356 -0.32298644 -0.43356208 -0.31865971 -0.29565486 -0.41773284 -0.68247969 -0.88183977 -0.84332048 -0.88365177 -1.0300185 -1.0552655 -1.1686368 -1.3639905 -1.3376111000000002 -1.2612936000000001 -1.4097822 -1.6345041 -1.7032377 -1.6770249 -1.7826278000000002 -1.9968716 -2.0563716 -1.9378808999999997 -1.8794116 -1.9154266 -1.8455069 -1.658135 -1.5094832 -1.3934261000000001 -1.2328683 -1.0243483 -0.76864001 -0.51129373 -0.30956399 -0.13196163 0.035054082 0.14215881 0.22580665 0.34369036 0.42858907 0.4695677 0.56978192 0.67566632 0.69988535 0.73256075 0.7716651999999999 0.73812943 0.7236994999999999
-0.071027356 -0.32298644 -0.43356208 -0.31865971 -0.29565486 -0.41773284 -0.68247969 -0.88183977 -0.84332048 -0.88365177 -1.0300185 -1.0552655 -1.1686368 -1.3639905 -1.3376111000000002 -1.2612936000000001 -1.4097822 -1.6345041 -1.7032377 -1.6770249 -1.7826278000000002 -1.9968716 -2.0563716 -1.9378808999999997 -1.8794116 -1.9154266 -1.8455069 -1.658135 -1.5094832 -1.3934261000000001 -1.2328683 -1.0243483 -0.76864001 -0.51129373 -0.30956399 -0.13196163 0.035054082 0.14215881 0.22580665 0.34369036 0.42858907 0.4695677 0.56978192 0.67566632 0.69988535 0.73256075 0.7716651999999999 0.73812943 0.7236994999999999 0.80687593
-0.32298644 -0.43356208 -0.31865971 -0.29565486 -0.41773284 -0.68247969 -0.88183977 -0.84332048 -0.88365177 -1.0300185 -1.0552655 -1.1686368 -1.3639905 -1.3376111000000002 -1.2612936000000001 -1.4097822 -1.6345041 -1.7032377 -1.6770249 -1.7826278000000002 -1.9968716 -2.0563716 -1.9378808999999997 -1.8794116 -1.9154266 -1.8455069 -1.658135 -1.5094832 -1.3934261000000001 -1.2328683 -1.0243483 -0.76864001 -0.51129373 -0.30956399 -0.13196163 0.035054082 0.14215881 0.22580665 0.34369036 0.42858907 0.4695677 0.56978192 0.67566632 0.69988535 0.73256075 0.7716651999999999 0.73812943 0.7236994999999999 0.80687593 0.87898449
-0.43356208 -0.31865971 -0.29565486 -0.41773284 -0.68247969 -0.88183977 -0.84332048 -0.88365177 -1.0300185 -1.0552655 -1.1686368 -1.3639905 -1.3376111000000002 -1.2612936000000001 -1.4097822 -1.6345041 -1.7032377 -1.6770249 -1.7826278000000002 -1.9968716 -2.0563716 -1.9378808999999997 -1.8794116 -1.9154266 -1.8455069 -1.658135 -1.5094832 -1.3934261000000001 -1.2328683 -1.0243483 -0.76864001 -0.51129373 -0.30956399 -0.13196163 0.035054082 0.14215881 0.22580665 0.34369036 0.42858907 0.4695677 0.56978192 0.67566632 0.69988535 0.73256075 0.7716651999999999 0.73812943 0.7236994999999999 0.80687593 0.87898449 0.85579127
-0.31865971 -0.29565486 -0.41773284 -0.68247969 -0.88183977 -0.84332048 -0.88365177 -1.0300185 -1.0552655 -1.1686368 -1.3639905 -1.3376111000000002 -1.2612936000000001 -1.4097822 -1.6345041 -1.7032377 -1.6770249 -1.7826278000000002 -1.9968716 -2.0563716 -1.9378808999999997 -1.8794116 -1.9154266 -1.8455069 -1.658135 -1.5094832 -1.3934261000000001 -1.2328683 -1.0243483 -0.76864001 -0.51129373 -0.30956399 -0.13196163 0.035054082 0.14215881 0.22580665 0.34369036 0.42858907 0.4695677 0.56978192 0.67566632 0.69988535 0.73256075 0.7716651999999999 0.73812943 0.7236994999999999 0.80687593 0.87898449 0.85579127 0.80638433
-0.29565486 -0.41773284 -0.68247969 -0.88183977 -0.84332048 -0.88365177 -1.0300185 -1.0552655 -1.1686368 -1.3639905 -1.3376111000000002 -1.2612936000000001 -1.4097822 -1.6345041 -1.7032377 -1.6770249 -1.7826278000000002 -1.9968716 -2.0563716 -1.9378808999999997 -1.8794116 -1.9154266 -1.8455069 -1.658135 -1.5094832 -1.3934261000000001 -1.2328683 -1.0243483 -0.76864001 -0.51129373 -0.30956399 -0.13196163 0.035054082 0.14215881 0.22580665 0.34369036 0.42858907 0.4695677 0.56978192 0.67566632 0.69988535 0.73256075 0.7716651999999999 0.73812943 0.7236994999999999 0.80687593 0.87898449 0.85579127 0.80638433 0.79250094
-0.41773284 -0.68247969 -0.88183977 -0.84332048 -0.88365177 -1.0300185 -1.0552655 -1.1686368 -1.3639905 -1.3376111000000002 -1.2612936000000001 -1.4097822 -1.6345041 -1.7032377 -1.6770249 -1.7826278000000002 -1.9968716 -2.0563716 -1.9378808999999997 -1.8794116 -1.9154266 -1.8455069 -1.658135 -1.5094832 -1.3934261000000001 -1.2328683 -1.0243483 -0.76864001 -0.51129373 -0.30956399 -0.13196163 0.035054082 0.14215881 0.22580665 0.34369036 0.42858907 0.4695677 0.56978192 0.67566632 0.69988535 0.73256075 0.7716651999999999 0.73812943 0.7236994999999999 0.80687593 0.87898449 0.85579127 0.80638433 0.79250094 0.80381413
-0.68247969 -0.88183977 -0.84332048 -0.88365177 -1.0300185 -1.0552655 -1.1686368 -1.3639905 -1.3376111000000002 -1.2612936000000001 -1.4097822 -1.6345041 -1.7032377 -1.6770249 -1.7826278000000002 -1.9968716 -2.0563716 -1.9378808999999997 -1.8794116 -1.9154266 -1.8455069 -1.658135 -1.5094832 -1.3934261000000001 -1.2328683 -1.0243483 -0.76864001 -0.51129373 -0.30956399 -0.13196163 0.035054082 0.14215881 0.22580665 0.34369036 0.42858907 0.4695677 0.56978192 0.67566632 0.69988535 0.73256075 0.7716651999999999 0.73812943 0.7236994999999999 0.80687593 0.87898449 0.85579127 0.80638433 0.79250094 0.80381413 0.78193839
-0.88183977 -0.84332048 -0.88365177 -1.0300185 -1.0552655 -1.1686368 -1.3639905 -1.3376111000000002 -1.2612936000000001 -1.4097822 -1.6345041 -1.7032377 -1.6770249 -1.7826278000000002 -1.9968716 -2.0563716 -1.9378808999999997 -1.8794116 -1.9154266 -1.8455069 -1.658135 -1.5094832 -1.3934261000000001 -1.2328683 -1.0243483 -0.76864001 -0.51129373 -0.30956399 -0.13196163 0.035054082 0.14215881 0.22580665 0.34369036 0.42858907 0.4695677 0.56978192 0.67566632 0.69988535 0.73256075 0.7716651999999999 0.73812943 0.7236994999999999 0.80687593 0.87898449 0.85579127 0.80638433 0.79250094 0.80381413 0.78193839 0.70043908
-0.84332048 -0.88365177 -1.0300185 -1.0552655 -1.1686368 -1.3639905 -1.3376111000000002 -1.2612936000000001 -1.4097822 -1.6345041 -1.7032377 -1.6770249 -1.7826278000000002 -1.9968716 -2.0563716 -1.9378808999999997 -1.8794116 -1.9154266 -1.8455069 -1.658135 -1.5094832 -1.3934261000000001 -1.2328683 -1.0243483 -0.76864001 -0.51129373 -0.30956399 -0.13196163 0.035054082 0.14215881 0.22580665 0.34369036 0.42858907 0.4695677 0.56978192 0.67566632 0.69988535 0.73256075 0.7716651999999999 0.73812943 0.7236994999999999 0.80687593 0.87898449 0.85579127 0.80638433 0.79250094 0.80381413 0.78193839 0.70043908 0.73595994
-0.88365177 -1.0300185 -1.0552655 -1.1686368 -1.3639905 -1.3376111000000002 -1.2612936000000001 -1.4097822 -1.6345041 -1.7032377 -1.6770249 -1.7826278000000002 -1.9968716 -2.0563716 -1.9378808999999997 -1.8794116 -1.9154266 -1.8455069 -1.658135 -1.5094832 -1.3934261000000001 -1.2328683 -1.0243483 -0.76864001 -0.51129373 -0.30956399 -0.13196163 0.035054082 0.14215881 0.22580665 0.34369036 0.42858907 0.4695677 0.56978192 0.67566632 0.69988535 0.73256075 0.7716651999999999 0.73812943 0.7236994999999999 0.80687593 0.87898449 0.85579127 0.80638433 0.79250094 0.80381413 0.78193839 0.70043908 0.73595994 0.86416166
-1.0300185 -1.0552655 -1.1686368 -1.3639905 -1.3376111000000002 -1.2612936000000001 -1.4097822 -1.6345041 -1.7032377 -1.6770249 -1.7826278000000002 -1.9968716 -2.0563716 -1.9378808999999997 -1.8794116 -1.9154266 -1.8455069 -1.658135 -1.5094832 -1.3934261000000001 -1.2328683 -1.0243483 -0.76864001 -0.51129373 -0.30956399 -0.13196163 0.035054082 0.14215881 0.22580665 0.34369036 0.42858907 0.4695677 0.56978192 0.67566632 0.69988535 0.73256075 0.7716651999999999 0.73812943 0.7236994999999999 0.80687593 0.87898449 0.85579127 0.80638433 0.79250094 0.80381413 0.78193839 0.70043908 0.73595994 0.86416166 0.70766984
-1.0552655 -1.1686368 -1.3639905 -1.3376111000000002 -1.2612936000000001 -1.4097822 -1.6345041 -1.7032377 -1.6770249 -1.7826278000000002 -1.9968716 -2.0563716 -1.9378808999999997 -1.8794116 -1.9154266 -1.8455069 -1.658135 -1.5094832 -1.3934261000000001 -1.2328683 -1.0243483 -0.76864001 -0.51129373 -0.30956399 -0.13196163 0.035054082 0.14215881 0.22580665 0.34369036 0.42858907 0.4695677 0.56978192 0.67566632 0.69988535 0.73256075 0.7716651999999999 0.73812943 0.7236994999999999 0.80687593 0.87898449 0.85579127 0.80638433 0.79250094 0.80381413 0.78193839 0.70043908 0.73595994 0.86416166 0.70766984 0.45875614
-1.1686368 -1.3639905 -1.3376111000000002 -1.2612936000000001 -1.4097822 -1.6345041 -1.7032377 -1.6770249 -1.7826278000000002 -1.9968716 -2.0563716 -1.9378808999999997 -1.8794116 -1.9154266 -1.8455069 -1.658135 -1.5094832 -1.3934261000000001 -1.2328683 -1.0243483 -0.76864001 -0.51129373 -0.30956399 -0.13196163 0.035054082 0.14215881 0.22580665 0.34369036 0.42858907 0.4695677 0.56978192 0.67566632 0.69988535 0.73256075 0.7716651999999999 0.73812943 0.7236994999999999 0.80687593 0.87898449 0.85579127 0.80638433 0.79250094 0.80381413 0.78193839 0.70043908 0.73595994 0.86416166 0.70766984 0.45875614 0.60014556
-1.3639905 -1.3376111000000002 -1.2612936000000001 -1.4097822 -1.6345041 -1.7032377 -1.6770249 -1.7826278000000002 -1.9968716 -2.0563716 -1.9378808999999997 -1.8794116 -1.9154266 -1.8455069 -1.658135 -1.5094832 -1.3934261000000001 -1.2328683 -1.0243483 -0.76864001 -0.51129373 -0.30956399 -0.13196163 0.035054082 0.14215881 0.22580665 0.34369036 0.42858907 0.4695677 0.56978192 0.67566632 0.69988535 0.73256075 0.7716651999999999 0.73812943 0.7236994999999999 0.80687593 0.87898449 0.85579127 0.80638433 0.79250094 0.80381413 0.78193839 0.70043908 0.73595994 0.86416166 0.70766984 0.45875614 0.60014556 0.82513646
-1.3376111000000002 -1.2612936000000001 -1.4097822 -1.6345041 -1.7032377 -1.6770249 -1.7826278000000002 -1.9968716 -2.0563716 -1.9378808999999997 -1.8794116 -1.9154266 -1.8455069 -1.658135 -1.5094832 -1.3934261000000001 -1.2328683 -1.0243483 -0.76864001 -0.51129373 -0.30956399 -0.13196163 0.035054082 0.14215881 0.22580665 0.34369036 0.42858907 0.4695677 0.56978192 0.67566632 0.69988535 0.73256075 0.7716651999999999 0.73812943 0.7236994999999999 0.80687593 0.87898449 0.85579127 0.80638433 0.79250094 0.80381413 0.78193839 0.70043908 0.73595994 0.86416166 0.70766984 0.45875614 0.60014556 0.82513646 0.80003425
-1.2612936000000001 -1.4097822 -1.6345041 -1.7032377 -1.6770249 -1.7826278000000002 -1.9968716 -2.0563716 -1.9378808999999997 -1.8794116 -1.9154266 -1.8455069 -1.658135 -1.5094832 -1.3934261000000001 -1.2328683 -1.0243483 -0.76864001 -0.51129373 -0.30956399 -0.13196163 0.035054082 0.14215881 0.22580665 0.34369036 0.42858907 0.4695677 0.56978192 0.67566632 0.69988535 0.73256075 0.7716651999999999 0.73812943 0.7236994999999999 0.80687593 0.87898449 0.85579127 0.80638433 0.79250094 0.80381413 0.78193839 0.70043908 0.73595994 0.86416166 0.70766984 0.45875614 0.60014556 0.82513646 0.80003425 0.76282112
-1.4097822 -1.6345041 -1.7032377 -1.6770249 -1.7826278000000002 -1.9968716 -2.0563716 -1.9378808999999997 -1.8794116 -1.9154266 -1.8455069 -1.658135 -1.5094832 -1.3934261000000001 -1.2328683 -1.0243483 -0.76864001 -0.51129373 -0.30956399 -0.13196163 0.035054082 0.14215881 0.22580665 0.34369036 0.42858907 0.4695677 0.56978192 0.67566632 0.69988535 0.73256075 0.7716651999999999 0.73812943 0.7236994999999999 0.80687593 0.87898449 0.85579127 0.80638433 0.79250094 0.80381413 0.78193839 0.70043908 0.73595994 0.86416166 0.70766984 0.45875614 0.60014556 0.82513646 0.80003425 0.76282112 0.75544283
-1.6345041 -1.7032377 -1.6770249 -1.7826278000000002 -1.9968716 -2.0563716 -1.9378808999999997 -1.8794116 -1.9154266 -1.8455069 -1.658135 -1.5094832 -1.3934261000000001 -1.2328683 -1.0243483 -0.76864001 -0.51129373 -0.30956399 -0.13196163 0.035054082 0.14215881 0.22580665 0.34369036 0.42858907 0.4695677 0.56978192 0.67566632 0.69988535 0.73256075 0.7716651999999999 0.73812943 0.7236994999999999 0.80687593 0.87898449 0.85579127 0.80638433 0.79250094 0.80381413 0.78193839 0.70043908 0.73595994 0.86416166 0.70766984 0.45875614 0.60014556 0.82513646 0.80003425 0.76282112 0.75544283 0.65376588
-1.7032377 -1.6770249 -1.7826278000000002 -1.9968716 -2.0563716 -1.9378808999999997 -1.8794116 -1.9154266 -1.8455069 -1.658135 -1.5094832 -1.3934261000000001 -1.2328683 -1.0243483 -0.76864001 -0.51129373 -0.30956399 -0.13196163 0.035054082 0.14215881 0.22580665 0.34369036 0.42858907 0.4695677 0.56978192 0.67566632 0.69988535 0.73256075 0.7716651999999999 0.73812943 0.7236994999999999 0.80687593 0.87898449 0.85579127 0.80638433 0.79250094 0.80381413 0.78193839 0.70043908 0.73595994 0.86416166 0.70766984 0.45875614 0.60014556 0.82513646 0.80003425 0.76282112 0.75544283 0.65376588 0.52644092
-1.6770249 -1.7826278000000002 -1.9968716 -2.0563716 -1.9378808999999997 -1.8794116 -1.9154266 -1.8455069 -1.658135 -1.5094832 -1.3934261000000001 -1.2328683 -1.0243483 -0.76864001 -0.51129373 -0.30956399 -0.13196163 0.035054082 0.14215881 0.22580665 0.34369036 0.42858907 0.4695677 0.56978192 0.67566632 0.69988535 0.73256075 0.7716651999999999 0.73812943 0.7236994999999999 0.80687593 0.87898449 0.85579127 0.80638433 0.79250094 0.80381413 0.78193839 0.70043908 0.73595994 0.86416166 0.70766984 0.45875614 0.60014556 0.82513646 0.80003425 0.76282112 0.75544283 0.65376588 0.52644092 0.47733909
-1.7826278000000002 -1.9968716 -2.0563716 -1.9378808999999997 -1.8794116 -1.9154266 -1.8455069 -1.658135 -1.5094832 -1.3934261000000001 -1.2328683 -1.0243483 -0.76864001 -0.51129373 -0.30956399 -0.13196163 0.035054082 0.14215881 0.22580665 0.34369036 0.42858907 0.4695677 0.56978192 0.67566632 0.69988535 0.73256075 0.7716651999999999 0.73812943 0.7236994999999999 0.80687593 0.87898449 0.85579127 0.80638433 0.79250094 0.80381413 0.78193839 0.70043908 0.73595994 0.86416166 0.70766984 0.45875614 0.60014556 0.82513646 0.80003425 0.76282112 0.75544283 0.65376588 0.52644092 0.47733909 0.57494596
-1.9968716 -2.0563716 -1.9378808999999997 -1.8794116 -1.9154266 -1.8455069 -1.658135 -1.5094832 -1.3934261000000001 -1.2328683 -1.0243483 -0.76864001 -0.51129373 -0.30956399 -0.13196163 0.035054082 0.14215881 0.22580665 0.34369036 0.42858907 0.4695677 0.56978192 0.67566632 0.69988535 0.73256075 0.7716651999999999 0.73812943 0.7236994999999999 0.80687593 0.87898449 0.85579127 0.80638433 0.79250094 0.80381413 0.78193839 0.70043908 0.73595994 0.86416166 0.70766984 0.45875614 0.60014556 0.82513646 0.80003425 0.76282112 0.75544283 0.65376588 0.52644092 0.47733909 0.57494596 0.69842456
-2.0563716 -1.9378808999999997 -1.8794116 -1.9154266 -1.8455069 -1.658135 -1.5094832 -1.3934261000000001 -1.2328683 -1.0243483 -0.76864001 -0.51129373 -0.30956399 -0.13196163 0.035054082 0.14215881 0.22580665 0.34369036 0.42858907 0.4695677 0.56978192 0.67566632 0.69988535 0.73256075 0.7716651999999999 0.73812943 0.7236994999999999 0.80687593 0.87898449 0.85579127 0.80638433 0.79250094 0.80381413 0.78193839 0.70043908 0.73595994 0.86416166 0.70766984 0.45875614 0.60014556 0.82513646 0.80003425 0.76282112 0.75544283 0.65376588 0.52644092 0.47733909 0.57494596 0.69842456 0.72241431
-1.9378808999999997 -1.8794116 -1.9154266 -1.8455069 -1.658135 -1.5094832 -1.3934261000000001 -1.2328683 -1.0243483 -0.76864001 -0.51129373 -0.30956399 -0.13196163 0.035054082 0.14215881 0.22580665 0.34369036 0.42858907 0.4695677 0.56978192 0.67566632 0.69988535 0.73256075 0.7716651999999999 0.73812943 0.7236994999999999 0.80687593 0.87898449 0.85579127 0.80638433 0.79250094 0.80381413 0.78193839 0.70043908 0.73595994 0.86416166 0.70766984 0.45875614 0.60014556 0.82513646 0.80003425 0.76282112 0.75544283 0.65376588 0.52644092 0.47733909 0.57494596 0.69842456 0.72241431 0.77159793
-1.8794116 -1.9154266 -1.8455069 -1.658135 -1.5094832 -1.3934261000000001 -1.2328683 -1.0243483 -0.76864001 -0.51129373 -0.30956399 -0.13196163 0.035054082 0.14215881 0.22580665 0.34369036 0.42858907 0.4695677 0.56978192 0.67566632 0.69988535 0.73256075 0.7716651999999999 0.73812943 0.7236994999999999 0.80687593 0.87898449 0.85579127 0.80638433 0.79250094 0.80381413 0.78193839 0.70043908 0.73595994 0.86416166 0.70766984 0.45875614 0.60014556 0.82513646 0.80003425 0.76282112 0.75544283 0.65376588 0.52644092 0.47733909 0.57494596 0.69842456 0.72241431 0.77159793 0.76422904
-1.9154266 -1.8455069 -1.658135 -1.5094832 -1.3934261000000001 -1.2328683 -1.0243483 -0.76864001 -0.51129373 -0.30956399 -0.13196163 0.035054082 0.14215881 0.22580665 0.34369036 0.42858907 0.4695677 0.56978192 0.67566632 0.69988535 0.73256075 0.7716651999999999 0.73812943 0.7236994999999999 0.80687593 0.87898449 0.85579127 0.80638433 0.79250094 0.80381413 0.78193839 0.70043908 0.73595994 0.86416166 0.70766984 0.45875614 0.60014556 0.82513646 0.80003425 0.76282112 0.75544283 0.65376588 0.52644092 0.47733909 0.57494596 0.69842456 0.72241431 0.77159793 0.76422904 0.61062146
-1.8455069 -1.658135 -1.5094832 -1.3934261000000001 -1.2328683 -1.0243483 -0.76864001 -0.51129373 -0.30956399 -0.13196163 0.035054082 0.14215881 0.22580665 0.34369036 0.42858907 0.4695677 0.56978192 0.67566632 0.69988535 0.73256075 0.7716651999999999 0.73812943 0.7236994999999999 0.80687593 0.87898449 0.85579127 0.80638433 0.79250094 0.80381413 0.78193839 0.70043908 0.73595994 0.86416166 0.70766984 0.45875614 0.60014556 0.82513646 0.80003425 0.76282112 0.75544283 0.65376588 0.52644092 0.47733909 0.57494596 0.69842456 0.72241431 0.77159793 0.76422904 0.61062146 0.55290034
-1.658135 -1.5094832 -1.3934261000000001 -1.2328683 -1.0243483 -0.76864001 -0.51129373 -0.30956399 -0.13196163 0.035054082 0.14215881 0.22580665 0.34369036 0.42858907 0.4695677 0.56978192 0.67566632 0.69988535 0.73256075 0.7716651999999999 0.73812943 0.7236994999999999 0.80687593 0.87898449 0.85579127 0.80638433 0.79250094 0.80381413 0.78193839 0.70043908 0.73595994 0.86416166 0.70766984 0.45875614 0.60014556 0.82513646 0.80003425 0.76282112 0.75544283 0.65376588 0.52644092 0.47733909 0.57494596 0.69842456 0.72241431 0.77159793 0.76422904 0.61062146 0.55290034 0.56678608
-1.5094832 -1.3934261000000001 -1.2328683 -1.0243483 -0.76864001 -0.51129373 -0.30956399 -0.13196163 0.035054082 0.14215881 0.22580665 0.34369036 0.42858907 0.4695677 0.56978192 0.67566632 0.69988535 0.73256075 0.7716651999999999 0.73812943 0.7236994999999999 0.80687593 0.87898449 0.85579127 0.80638433 0.79250094 0.80381413 0.78193839 0.70043908 0.73595994 0.86416166 0.70766984 0.45875614 0.60014556 0.82513646 0.80003425 0.76282112 0.75544283 0.65376588 0.52644092 0.47733909 0.57494596 0.69842456 0.72241431 0.77159793 0.76422904 0.61062146 0.55290034 0.56678608 0.60400236
-1.3934261000000001 -1.2328683 -1.0243483 -0.76864001 -0.51129373 -0.30956399 -0.13196163 0.035054082 0.14215881 0.22580665 0.34369036 0.42858907 0.4695677 0.56978192 0.67566632 0.69988535 0.73256075 0.7716651999999999 0.73812943 0.7236994999999999 0.80687593 0.87898449 0.85579127 0.80638433 0.79250094 0.80381413 0.78193839 0.70043908 0.73595994 0.86416166 0.70766984 0.45875614 0.60014556 0.82513646 0.80003425 0.76282112 0.75544283 0.65376588 0.52644092 0.47733909 0.57494596 0.69842456 0.72241431 0.77159793 0.76422904 0.61062146 0.55290034 0.56678608 0.60400236 0.77706781
-1.2328683 -1.0243483 -0.76864001 -0.51129373 -0.30956399 -0.13196163 0.035054082 0.14215881 0.22580665 0.34369036 0.42858907 0.4695677 0.56978192 0.67566632 0.69988535 0.73256075 0.7716651999999999 0.73812943 0.7236994999999999 0.80687593 0.87898449 0.85579127 0.80638433 0.79250094 0.80381413 0.78193839 0.70043908 0.73595994 0.86416166 0.70766984 0.45875614 0.60014556 0.82513646 0.80003425 0.76282112 0.75544283 0.65376588 0.52644092 0.47733909 0.57494596 0.69842456 0.72241431 0.77159793 0.76422904 0.61062146 0.55290034 0.56678608 0.60400236 0.77706781 0.81234542
-1.0243483 -0.76864001 -0.51129373 -0.30956399 -0.13196163 0.035054082 0.14215881 0.22580665 0.34369036 0.42858907 0.4695677 0.56978192 0.67566632 0.69988535 0.73256075 0.7716651999999999 0.73812943 0.7236994999999999 0.80687593 0.87898449 0.85579127 0.80638433 0.79250094 0.80381413 0.78193839 0.70043908 0.73595994 0.86416166 0.70766984 0.45875614 0.60014556 0.82513646 0.80003425 0.76282112 0.75544283 0.65376588 0.52644092 0.47733909 0.57494596 0.69842456 0.72241431 0.77159793 0.76422904 0.61062146 0.55290034 0.56678608 0.60400236 0.77706781 0.81234542 0.74884814
-0.76864001 -0.51129373 -0.30956399 -0.13196163 0.035054082 0.14215881 0.22580665 0.34369036 0.42858907 0.4695677 0.56978192 0.67566632 0.69988535 0.73256075 0.7716651999999999 0.73812943 0.7236994999999999 0.80687593 0.87898449 0.85579127 0.80638433 0.79250094 0.80381413 0.78193839 0.70043908 0.73595994 0.86416166 0.70766984 0.45875614 0.60014556 0.82513646 0.80003425 0.76282112 0.75544283 0.65376588 0.52644092 0.47733909 0.57494596 0.69842456 0.72241431 0.77159793 0.76422904 0.61062146 0.55290034 0.56678608 0.60400236 0.77706781 0.81234542 0.74884814 0.81804204
-0.51129373 -0.30956399 -0.13196163 0.035054082 0.14215881 0.22580665 0.34369036 0.42858907 0.4695677 0.56978192 0.67566632 0.69988535 0.73256075 0.7716651999999999 0.73812943 0.7236994999999999 0.80687593 0.87898449 0.85579127 0.80638433 0.79250094 0.80381413 0.78193839 0.70043908 0.73595994 0.86416166 0.70766984 0.45875614 0.60014556 0.82513646 0.80003425 0.76282112 0.75544283 0.65376588 0.52644092 0.47733909 0.57494596 0.69842456 0.72241431 0.77159793 0.76422904 0.61062146 0.55290034 0.56678608 0.60400236 0.77706781 0.81234542 0.74884814 0.81804204 0.53934704
