0.47041178 1.1748488000000001 2.2214786 3.9038608999999997 2.7879987 1.0087323000000001 -0.58596686 -1.114817 -0.12519509 0.11704067 0.20179858 -0.38598629 -0.20846672 0.25844822 -0.29346312 -0.10047724 -0.44661919 -0.94101217 -0.71326638 -0.80758438 -0.95976323 -1.0230287 -1.2076556 -1.2410564 -1.3355131000000002 -1.5213725 -1.5576032 -1.5766115 -1.7348496999999998 -1.9569032 -1.7295609 -2.0988834 -1.7148508999999998 -1.7751271 -1.6744488000000002 -1.3307911000000001 -1.2737656000000002 -0.66548051 -0.69212143 -0.25276116 0.077724652 0.04161385 0.47523099 0.80391968 0.91850262 1.1074806000000001 0.77580526 1.052794 1.0120119 0.72443783
1.1748488000000001 2.2214786 3.9038608999999997 2.7879987 1.0087323000000001 -0.58596686 -1.114817 -0.12519509 0.11704067 0.20179858 -0.38598629 -0.20846672 0.25844822 -0.29346312 -0.10047724 -0.44661919 -0.94101217 -0.71326638 -0.80758438 -0.95976323 -1.0230287 -1.2076556 -1.2410564 -1.3355131000000002 -1.5213725 -1.5576032 -1.5766115 -1.7348496999999998 -1.9569032 -1.7295609 -2.0988834 -1.7148508999999998 -1.7751271 -1.6744488000000002 -1.3307911000000001 -1.2737656000000002 -0.66548051 -0.69212143 -0.25276116 0.077724652 0.04161385 0.47523099 0.80391968 0.91850262 1.1074806000000001 0.77580526 1.052794 1.0120119 0.72443783 0.95483584
2.2214786 3.9038608999999997 2.7879987 1.0087323000000001 -0.58596686 -1.114817 -0.12519509 0.11704067 0.20179858 -0.38598629 -0.20846672 0.25844822 -0.29346312 -0.10047724 -0.44661919 -0.94101217 -0.71326638 -0.80758438 -0.95976323 -1.0230287 -1.2076556 -1.2410564 -1.3355131000000002 -1.5213725 -1.5576032 -1.5766115 -1.7348496999999998 -1.9569032 -1.7295609 -2.0988834 -1.7148508999999998 -1.7751271 -1.6744488000000002 -1.3307911000000001 -1.2737656000000002 -0.66548051 -0.69212143 -0.25276116 0.077724652 0.04161385 0.47523099 0.80391968 0.91850262 1.1074806000000001 0.77580526 1.052794 1.0120119 0.72443783 0.95483584 0.63820354
3.9038608999999997 2.7879987 1.0087323000000001 -0.58596686 -1.114817 -0.12519509 0.11704067 0.20179858 -0.38598629 -0.20846672 0.25844822 -0.29346312 -0.10047724 -0.44661919 -0.94101217 -0.71326638 -0.80758438 -0.95976323 -1.0230287 -1.2076556 -1.2410564 -1.3355131000000002 -1.5213725 -1.5576032 -1.5766115 -1.7348496999999998 -1.9569032 -1.7295609 -2.0988834 -1.7148508999999998 -1.7751271 -1.6744488000000002 -1.3307911000000001 -1.2737656000000002 -0.66548051 -0.69212143 -0.25276116 0.077724652 0.04161385 0.47523099 0.80391968 0.91850262 1.1074806000000001 0.77580526 1.052794 1.0120119 0.72443783 0.95483584 0.63820354 0.80321316
2.7879987 1.0087323000000001 -0.58596686 -1.114817 -0.12519509 0.11704067 0.20179858 -0.38598629 -0.20846672 0.25844822 -0.29346312 -0.10047724 -0.44661919 -0.94101217 -0.71326638 -0.80758438 -0.95976323 -1.0230287 -1.2076556 -1.2410564 -1.3355131000000002 -1.5213725 -1.5576032 -1.5766115 -1.7348496999999998 -1.9569032 -1.7295609 -2.0988834 -1.7148508999999998 -1.7751271 -1.6744488000000002 -1.3307911000000001 -1.2737656000000002 -0.66548051 -0.69212143 -0.25276116 0.077724652 0.04161385 0.47523099 0.80391968 0.91850262 1.1074806000000001 0.77580526 1.052794 1.0120119 0.72443783 0.95483584 0.63820354 0.80321316 0.80865492
1.0087323000000001 -0.58596686 -1.114817 -0.12519509 0.11704067 0.20179858 -0.38598629 -0.20846672 0.25844822 -0.29346312 -0.10047724 -0.44661919 -0.94101217 -0.71326638 -0.80758438 -0.95976323 -1.0230287 -1.2076556 -1.2410564 -1.3355131000000002 -1.5213725 -1.5576032 -1.5766115 -1.7348496999999998 -1.9569032 -1.7295609 -2.0988834 -1.7148508999999998 -1.7751271 -1.6744488000000002 -1.3307911000000001 -1.2737656000000002 -0.66548051 -0.69212143 -0.25276116 0.077724652 0.04161385 0.47523099 0.80391968 0.91850262 1.1074806000000001 0.77580526 1.052794 1.0120119 0.72443783 0.95483584 0.63820354 0.80321316 0.80865492 0.35048747
-0.58596686 -1.114817 -0.12519509 0.11704067 0.20179858 -0.38598629 -0.20846672 0.25844822 -0.29346312 -0.10047724 -0.44661919 -0.94101217 -0.71326638 -0.80758438 -0.95976323 -1.0230287 -1.2076556 -1.2410564 -1.3355131000000002 -1.5213725 -1.5576032 -1.5766115 -1.7348496999999998 -1.9569032 -1.7295609 -2.0988834 -1.7148508999999998 -1.7751271 -1.6744488000000002 -1.3307911000000001 -1.2737656000000002 -0.66548051 -0.69212143 -0.25276116 0.077724652 0.04161385 0.47523099 0.80391968 0.91850262 1.1074806000000001 0.77580526 1.052794 1.0120119 0.72443783 0.95483584 0.63820354 0.80321316 0.80865492 0.35048747 0.59308132
-1.114817 -0.12519509 0.11704067 0.20179858 -0.38598629 -0.20846672 0.25844822 -0.29346312 -0.10047724 -0.44661919 -0.94101217 -0.71326638 -0.80758438 -0.95976323 -1.0230287 -1.2076556 -1.2410564 -1.3355131000000002 -1.5213725 -1.5576032 -1.5766115 -1.7348496999999998 -1.9569032 -1.7295609 -2.0988834 -1.7148508999999998 -1.7751271 -1.6744488000000002 -1.3307911000000001 -1.2737656000000002 -0.66548051 -0.69212143 -0.25276116 0.077724652 0.04161385 0.47523099 0.80391968 0.91850262 1.1074806000000001 0.77580526 1.052794 1.0120119 0.72443783 0.95483584 0.63820354 0.80321316 0.80865492 0.35048747 0.59308132 0.81393851
-0.12519509 0.11704067 0.20179858 -0.38598629 -0.20846672 0.25844822 -0.29346312 -0.10047724 -0.44661919 -0.94101217 -0.71326638 -0.80758438 -0.95976323 -1.0230287 -1.2076556 -1.2410564 -1.3355131000000002 -1.5213725 -1.5576032 -1.5766115 -1.7348496999999998 -1.9569032 -1.7295609 -2.0988834 -1.7148508999999998 -1.7751271 -1.6744488000000002 -1.3307911000000001 -1.2737656000000002 -0.66548051 -0.69212143 -0.25276116 0.077724652 0.04161385 0.47523099 0.80391968 0.91850262 1.1074806000000001 0.77580526 1.052794 1.0120119 0.72443783 0.95483584 0.63820354 0.80321316 0.80865492 0.35048747 0.59308132 0.81393851 0.63892725
0.11704067 0.20179858 -0.38598629 -0.20846672 0.25844822 -0.29346312 -0.10047724 -0.44661919 -0.94101217 -0.71326638 -0.80758438 -0.95976323 -1.0230287 -1.2076556 -1.2410564 -1.3355131000000002 -1.5213725 -1.5576032 -1.5766115 -1.7348496999999998 -1.9569032 -1.7295609 -2.0988834 -1.7148508999999998 -1.7751271 -1.6744488000000002 -1.3307911000000001 -1.2737656000000002 -0.66548051 -0.69212143 -0.25276116 0.077724652 0.04161385 0.47523099 0.80391968 0.91850262 1.1074806000000001 0.77580526 1.052794 1.0120119 0.72443783 0.95483584 0.63820354 0.80321316 0.80865492 0.35048747 0.59308132 0.81393851 0.63892725 0.46192926
0.20179858 -0.38598629 -0.20846672 0.25844822 -0.29346312 -0.10047724 -0.44661919 -0.94101217 -0.71326638 -0.80758438 -0.95976323 -1.0230287 -1.2076556 -1.2410564 -1.3355131000000002 -1.5213725 -1.5576032 -1.5766115 -1.7348496999999998 -1.9569032 -1.7295609 -2.0988834 -1.7148508999999998 -1.7751271 -1.6744488000000002 -1.3307911000000001 -1.2737656000000002 -0.66548051 -0.69212143 -0.25276116 0.077724652 0.04161385 0.47523099 0.80391968 0.91850262 1.1074806000000001 0.77580526 1.052794 1.0120119 0.72443783 0.95483584 0.63820354 0.80321316 0.80865492 0.35048747 0.59308132 0.81393851 0.63892725 0.46192926 1.3950243
-0.38598629 -0.20846672 0.25844822 -0.29346312 -0.10047724 -0.44661919 -0.94101217 -0.71326638 -0.80758438 -0.95976323 -1.0230287 -1.2076556 -1.2410564 -1.3355131000000002 -1.5213725 -1.5576032 -1.5766115 -1.7348496999999998 -1.9569032 -1.7295609 -2.0988834 -1.7148508999999998 -1.7751271 -1.6744488000000002 -1.3307911000000001 -1.2737656000000002 -0.66548051 -0.69212143 -0.25276116 0.077724652 0.04161385 0.47523099 0.80391968 0.91850262 1.1074806000000001 0.77580526 1.052794 1.0120119 0.72443783 0.95483584 0.63820354 0.80321316 0.80865492 0.35048747 0.59308132 0.81393851 0.63892725 0.46192926 1.3950243 0.24079772
-0.20846672 0.25844822 -0.29346312 -0.10047724 -0.44661919 -0.94101217 -0.71326638 -0.80758438 -0.95976323 -1.0230287 -1.2076556 -1.2410564 -1.3355131000000002 -1.5213725 -1.5576032 -1.5766115 -1.7348496999999998 -1.9569032 -1.7295609 -2.0988834 -1.7148508999999998 -1.7751271 -1.6744488000000002 -1.3307911000000001 -1.2737656000000002 -0.66548051 -0.69212143 -0.25276116 0.077724652 0.04161385 0.47523099 0.80391968 0.91850262 1.1074806000000001 0.77580526 1.052794 1.0120119 0.72443783 0.95483584 0.63820354 0.80321316 0.80865492 0.35048747 0.59308132 0.81393851 0.63892725 0.46192926 1.3950243 0.24079772 0.058935947999999995
0.25844822 -0.29346312 -0.10047724 -0.44661919 -0.94101217 -0.71326638 -0.80758438 -0.95976323 -1.0230287 -1.2076556 -1.2410564 -1.3355131000000002 -1.5213725 -1.5576032 -1.5766115 -1.7348496999999998 -1.9569032 -1.7295609 -2.0988834 -1.7148508999999998 -1.7751271 -1.6744488000000002 -1.3307911000000001 -1.2737656000000002 -0.66548051 -0.69212143 -0.25276116 0.077724652 0.04161385 0.47523099 0.80391968 0.91850262 1.1074806000000001 0.77580526 1.052794 1.0120119 0.72443783 0.95483584 0.63820354 0.80321316 0.80865492 0.35048747 0.59308132 0.81393851 0.63892725 0.46192926 1.3950243 0.24079772 0.058935947999999995 0.80172289
-0.29346312 -0.10047724 -0.44661919 -0.94101217 -0.71326638 -0.80758438 -0.95976323 -1.0230287 -1.2076556 -1.2410564 -1.3355131000000002 -1.5213725 -1.5576032 -1.5766115 -1.7348496999999998 -1.9569032 -1.7295609 -2.0988834 -1.7148508999999998 -1.7751271 -1.6744488000000002 -1.3307911000000001 -1.2737656000000002 -0.66548051 -0.69212143 -0.25276116 0.077724652 0.04161385 0.47523099 0.80391968 0.91850262 1.1074806000000001 0.77580526 1.052794 1.0120119 0.72443783 0.95483584 0.63820354 0.80321316 0.80865492 0.35048747 0.59308132 0.81393851 0.63892725 0.46192926 1.3950243 0.24079772 0.058935947999999995 0.80172289 0.060674966
-0.10047724 -0.44661919 -0.94101217 -0.71326638 -0.80758438 -0.95976323 -1.0230287 -1.2076556 -1.2410564 -1.3355131000000002 -1.5213725 -1.5576032 -1.5766115 -1.7348496999999998 -1.9569032 -1.7295609 -2.0988834 -1.7148508999999998 -1.7751271 -1.6744488000000002 -1.3307911000000001 -1.2737656000000002 -0.66548051 -0.69212143 -0.25276116 0.077724652 0.04161385 0.47523099 0.80391968 0.91850262 1.1074806000000001 0.77580526 1.052794 1.0120119 0.72443783 0.95483584 0.63820354 0.80321316 0.80865492 0.35048747 0.59308132 0.81393851 0.63892725 0.46192926 1.3950243 0.24079772 0.058935947999999995 0.80172289 0.060674966 0.56301153
-0.44661919 -0.94101217 -0.71326638 -0.80758438 -0.95976323 -1.0230287 -1.2076556 -1.2410564 -1.3355131000000002 -1.5213725 -1.5576032 -1.5766115 -1.7348496999999998 -1.9569032 -1.7295609 -2.0988834 -1.7148508999999998 -1.7751271 -1.6744488000000002 -1.3307911000000001 -1.2737656000000002 -0.66548051 -0.69212143 -0.25276116 0.077724652 0.04161385 0.47523099 0.80391968 0.91850262 1.1074806000000001 0.77580526 1.052794 1.0120119 0.72443783 0.95483584 0.63820354 0.80321316 0.80865492 0.35048747 0.59308132 0.81393851 0.63892725 0.46192926 1.3950243 0.24079772 0.058935947999999995 0.80172289 0.060674966 0.56301153 0.38523352
-0.94101217 -0.71326638 -0.80758438 -0.95976323 -1.0230287 -1.2076556 -1.2410564 -1.3355131000000002 -1.5213725 -1.5576032 -1.5766115 -1.7348496999999998 -1.9569032 -1.7295609 -2.0988834 -1.7148508999999998 -1.7751271 -1.6744488000000002 -1.3307911000000001 -1.2737656000000002 -0.66548051 -0.69212143 -0.25276116 0.077724652 0.04161385 0.47523099 0.80391968 0.91850262 1.1074806000000001 0.77580526 1.052794 1.0120119 0.72443783 0.95483584 0.63820354 0.80321316 0.80865492 0.35048747 0.59308132 0.81393851 0.63892725 0.46192926 1.3950243 0.24079772 0.058935947999999995 0.80172289 0.060674966 0.56301153 0.38523352 0.10923447
-0.71326638 -0.80758438 -0.95976323 -1.0230287 -1.2076556 -1.2410564 -1.3355131000000002 -1.5213725 -1.5576032 -1.5766115 -1.7348496999999998 -1.9569032 -1.7295609 -2.0988834 -1.7148508999999998 -1.7751271 -1.6744488000000002 -1.3307911000000001 -1.2737656000000002 -0.66548051 -0.69212143 -0.25276116 0.077724652 0.04161385 0.47523099 0.80391968 0.91850262 1.1074806000000001 0.77580526 1.052794 1.0120119 0.72443783 0.95483584 0.63820354 0.80321316 0.80865492 0.35048747 0.59308132 0.81393851 0.63892725 0.46192926 1.3950243 0.24079772 0.058935947999999995 0.80172289 0.060674966 0.56301153 0.38523352 0.10923447 0.47034604
-0.80758438 -0.95976323 -1.0230287 -1.2076556 -1.2410564 -1.3355131000000002 -1.5213725 -1.5576032 -1.5766115 -1.7348496999999998 -1.9569032 -1.7295609 -2.0988834 -1.7148508999999998 -1.7751271 -1.6744488000000002 -1.3307911000000001 -1.2737656000000002 -0.66548051 -0.69212143 -0.25276116 0.077724652 0.04161385 0.47523099 0.80391968 0.91850262 1.1074806000000001 0.77580526 1.052794 1.0120119 0.72443783 0.95483584 0.63820354 0.80321316 0.80865492 0.35048747 0.59308132 0.81393851 0.63892725 0.46192926 1.3950243 0.24079772 0.058935947999999995 0.80172289 0.060674966 0.56301153 0.38523352 0.10923447 0.47034604 0.16641582
-0.95976323 -1.0230287 -1.2076556 -1.2410564 -1.3355131000000002 -1.5213725 -1.5576032 -1.5766115 -1.7348496999999998 -1.9569032 -1.7295609 -2.0988834 -1.7148508999999998 -1.7751271 -1.6744488000000002 -1.3307911000000001 -1.2737656000000002 -0.66548051 -0.69212143 -0.25276116 0.077724652 0.04161385 0.47523099 0.80391968 0.91850262 1.1074806000000001 0.77580526 1.052794 1.0120119 0.72443783 0.95483584 0.63820354 0.80321316 0.80865492 0.35048747 0.59308132 0.81393851 0.63892725 0.46192926 1.3950243 0.24079772 0.058935947999999995 0.80172289 0.060674966 0.56301153 0.38523352 0.10923447 0.47034604 0.16641582 0.18778965
-1.0230287 -1.2076556 -1.2410564 -1.3355131000000002 -1.5213725 -1.5576032 -1.5766115 -1.7348496999999998 -1.9569032 -1.7295609 -2.0988834 -1.7148508999999998 -1.7751271 -1.6744488000000002 -1.3307911000000001 -1.2737656000000002 -0.66548051 -0.69212143 -0.25276116 0.077724652 0.04161385 0.47523099 0.80391968 0.91850262 1.1074806000000001 0.77580526 1.052794 1.0120119 0.72443783 0.95483584 0.63820354 0.80321316 0.80865492 0.35048747 0.59308132 0.81393851 0.63892725 0.46192926 1.3950243 0.24079772 0.058935947999999995 0.80172289 0.060674966 0.56301153 0.38523352 0.10923447 0.47034604 0.16641582 0.18778965 0.43108177
-1.2076556 -1.2410564 -1.3355131000000002 -1.5213725 -1.5576032 -1.5766115 -1.7348496999999998 -1.9569032 -1.7295609 -2.0988834 -1.7148508999999998 -1.7751271 -1.6744488000000002 -1.3307911000000001 -1.2737656000000002 -0.66548051 -0.69212143 -0.25276116 0.077724652 0.04161385 0.47523099 0.80391968 0.91850262 1.1074806000000001 0.77580526 1.052794 1.0120119 0.72443783 0.95483584 0.63820354 0.80321316 0.80865492 0.35048747 0.59308132 0.81393851 0.63892725 0.46192926 1.3950243 0.24079772 0.058935947999999995 0.80172289 0.060674966 0.56301153 0.38523352 0.10923447 0.47034604 0.16641582 0.18778965 0.43108177 0.3340818
-1.2410564 -1.3355131000000002 -1.5213725 -1.5576032 -1.5766115 -1.7348496999999998 -1.9569032 -1.7295609 -2.0988834 -1.7148508999999998 -1.7751271 -1.6744488000000002 -1.3307911000000001 -1.2737656000000002 -0.66548051 -0.69212143 -0.25276116 0.077724652 0.04161385 0.47523099 0.80391968 0.91850262 1.1074806000000001 0.77580526 1.052794 1.0120119 0.72443783 0.95483584 0.63820354 0.80321316 0.80865492 0.35048747 0.59308132 0.81393851 0.63892725 0.46192926 1.3950243 0.24079772 0.058935947999999995 0.80172289 0.060674966 0.56301153 0.38523352 0.10923447 0.47034604 0.16641582 0.18778965 0.43108177 0.3340818 0.30683461
-1.3355131000000002 -1.5213725 -1.5576032 -1.5766115 -1.7348496999999998 -1.9569032 -1.7295609 -2.0988834 -1.7148508999999998 -1.7751271 -1.6744488000000002 -1.3307911000000001 -1.2737656000000002 -0.66548051 -0.69212143 -0.25276116 0.077724652 0.04161385 0.47523099 0.80391968 0.91850262 1.1074806000000001 0.77580526 1.052794 1.0120119 0.72443783 0.95483584 0.63820354 0.80321316 0.80865492 0.35048747 0.59308132 0.81393851 0.63892725 0.46192926 1.3950243 0.24079772 0.058935947999999995 0.80172289 0.060674966 0.56301153 0.38523352 0.10923447 0.47034604 0.16641582 0.18778965 0.43108177 0.3340818 0.30683461 0.80995113
-1.5213725 -1.5576032 -1.5766115 -1.7348496999999998 -1.9569032 -1.7295609 -2.0988834 -1.7148508999999998 -1.7751271 -1.6744488000000002 -1.3307911000000001 -1.2737656000000002 -0.66548051 -0.69212143 -0.25276116 0.077724652 0.04161385 0.47523099 0.80391968 0.91850262 1.1074806000000001 0.77580526 1.052794 1.0120119 0.72443783 0.95483584 0.63820354 0.80321316 0.80865492 0.35048747 0.59308132 0.81393851 0.63892725 0.46192926 1.3950243 0.24079772 0.058935947999999995 0.80172289 0.060674966 0.56301153 0.38523352 0.10923447 0.47034604 0.16641582 0.18778965 0.43108177 0.3340818 0.30683461 0.80995113 1.1522226
-1.5576032 -1.5766115 -1.7348496999999998 -1.9569032 -1.7295609 -2.0988834 -1.7148508999999998 -1.7751271 -1.6744488000000002 -1.3307911000000001 -1.2737656000000002 -0.66548051 -0.69212143 -0.25276116 0.077724652 0.04161385 0.47523099 0.80391968 0.91850262 1.1074806000000001 0.77580526 1.052794 1.0120119 0.72443783 0.95483584 0.63820354 0.80321316 0.80865492 0.35048747 0.59308132 0.81393851 0.63892725 0.46192926 1.3950243 0.24079772 0.058935947999999995 0.80172289 0.060674966 0.56301153 0.38523352 0.10923447 0.47034604 0.16641582 0.18778965 0.43108177 0.3340818 0.30683461 0.80995113 1.1522226 0.5408318
-1.5766115 -1.7348496999999998 -1.9569032 -1.7295609 -2.0988834 -1.7148508999999998 -1.7751271 -1.6744488000000002 -1.3307911000000001 -1.2737656000000002 -0.66548051 -0.69212143 -0.25276116 0.077724652 0.04161385 0.47523099 0.80391968 0.91850262 1.1074806000000001 0.77580526 1.052794 1.0120119 0.72443783 0.95483584 0.63820354 0.80321316 0.80865492 0.35048747 0.59308132 0.81393851 0.63892725 0.46192926 1.3950243 0.24079772 0.058935947999999995 0.80172289 0.060674966 0.56301153 0.38523352 0.10923447 0.47034604 0.16641582 0.18778965 0.43108177 0.3340818 0.30683461 0.80995113 1.1522226 0.5408318 0.90570745
-1.7348496999999998 -1.9569032 -1.7295609 -2.0988834 -1.7148508999999998 -1.7751271 -1.6744488000000002 -1.3307911000000001 -1.2737656000000002 -0.66548051 -0.69212143 -0.25276116 0.077724652 0.04161385 0.47523099 0.80391968 0.91850262 1.1074806000000001 0.77580526 1.052794 1.0120119 0.72443783 0.95483584 0.63820354 0.80321316 0.80865492 0.35048747 0.59308132 0.81393851 0.63892725 0.46192926 1.3950243 0.24079772 0.058935947999999995 0.80172289 0.060674966 0.56301153 0.38523352 0.10923447 0.47034604 0.16641582 0.18778965 0.43108177 0.3340818 0.30683461 0.80995113 1.1522226 0.5408318 0.90570745 0.73703156
-1.9569032 -1.7295609 -2.0988834 -1.7148508999999998 -1.7751271 -1.6744488000000002 -1.3307911000000001 -1.2737656000000002 -0.66548051 -0.69212143 -0.25276116 0.077724652 0.04161385 0.47523099 0.80391968 0.91850262 1.1074806000000001 0.77580526 1.052794 1.0120119 0.72443783 0.95483584 0.63820354 0.80321316 0.80865492 0.35048747 0.59308132 0.81393851 0.63892725 0.46192926 1.3950243 0.24079772 0.058935947999999995 0.80172289 0.060674966 0.56301153 0.38523352 0.10923447 0.47034604 0.16641582 0.18778965 0.43108177 0.3340818 0.30683461 0.80995113 1.1522226 0.5408318 0.90570745 0.73703156 0.055853564
-1.7295609 -2.0988834 -1.7148508999999998 -1.7751271 -1.6744488000000002 -1.3307911000000001 -1.2737656000000002 -0.66548051 -0.69212143 -0.25276116 0.077724652 0.04161385 0.47523099 0.80391968 0.91850262 1.1074806000000001 0.77580526 1.052794 1.0120119 0.72443783 0.95483584 0.63820354 0.80321316 0.80865492 0.35048747 0.59308132 0.81393851 0.63892725 0.46192926 1.3950243 0.24079772 0.058935947999999995 0.80172289 0.060674966 0.56301153 0.38523352 0.10923447 0.47034604 0.16641582 0.18778965 0.43108177 0.3340818 0.30683461 0.80995113 1.1522226 0.5408318 0.90570745 0.73703156 0.055853564 0.20591019
-2.0988834 -1.7148508999999998 -1.7751271 -1.6744488000000002 -1.3307911000000001 -1.2737656000000002 -0.66548051 -0.69212143 -0.25276116 0.077724652 0.04161385 0.47523099 0.80391968 0.91850262 1.1074806000000001 0.77580526 1.052794 1.0120119 0.72443783 0.95483584 0.63820354 0.80321316 0.80865492 0.35048747 0.59308132 0.81393851 0.63892725 0.46192926 1.3950243 0.24079772 0.058935947999999995 0.80172289 0.060674966 0.56301153 0.38523352 0.10923447 0.47034604 0.16641582 0.18778965 0.43108177 0.3340818 0.30683461 0.80995113 1.1522226 0.5408318 0.90570745 0.73703156 0.055853564 0.20591019 -0.015736798
-1.7148508999999998 -1.7751271 -1.6744488000000002 -1.3307911000000001 -1.2737656000000002 -0.66548051 -0.69212143 -0.25276116 0.077724652 0.04161385 0.47523099 0.80391968 0.91850262 1.1074806000000001 0.77580526 1.052794 1.0120119 0.72443783 0.95483584 0.63820354 0.80321316 0.80865492 0.35048747 0.59308132 0.81393851 0.63892725 0.46192926 1.3950243 0.24079772 0.058935947999999995 0.80172289 0.060674966 0.56301153 0.38523352 0.10923447 0.47034604 0.16641582 0.18778965 0.43108177 0.3340818 0.30683461 0.80995113 1.1522226 0.5408318 0.90570745 0.73703156 0.055853564 0.20591019 -0.015736798 0.090974722
-1.7751271 -1.6744488000000002 -1.3307911000000001 -1.2737656000000002 -0.66548051 -0.69212143 -0.25276116 0.077724652 0.04161385 0.47523099 0.80391968 0.91850262 1.1074806000000001 0.77580526 1.052794 1.0120119 0.72443783 0.95483584 0.63820354 0.80321316 0.80865492 0.35048747 0.59308132 0.81393851 0.63892725 0.46192926 1.3950243 0.24079772 0.058935947999999995 0.80172289 0.060674966 0.56301153 0.38523352 0.10923447 0.47034604 0.16641582 0.18778965 0.43108177 0.3340818 0.30683461 0.80995113 1.1522226 0.5408318 0.90570745 0.73703156 0.055853564 0.20591019 -0.015736798 0.090974722 -0.22159296
-1.6744488000000002 -1.3307911000000001 -1.2737656000000002 -0.66548051 -0.69212143 -0.25276116 0.077724652 0.04161385 0.47523099 0.80391968 0.91850262 1.1074806000000001 0.77580526 1.052794 1.0120119 0.72443783 0.95483584 0.63820354 0.80321316 0.80865492 0.35048747 0.59308132 0.81393851 0.63892725 0.46192926 1.3950243 0.24079772 0.058935947999999995 0.80172289 0.060674966 0.56301153 0.38523352 0.10923447 0.47034604 0.16641582 0.18778965 0.43108177 0.3340818 0.30683461 0.80995113 1.1522226 0.5408318 0.90570745 0.73703156 0.055853564 0.20591019 -0.015736798 0.090974722 -0.22159296 -0.2804552
-1.3307911000000001 -1.2737656000000002 -0.66548051 -0.69212143 -0.25276116 0.077724652 0.04161385 0.47523099 0.80391968 0.91850262 1.1074806000000001 0.77580526 1.052794 1.0120119 0.72443783 0.95483584 0.63820354 0.80321316 0.80865492 0.35048747 0.59308132 0.81393851 0.63892725 0.46192926 1.3950243 0.24079772 0.058935947999999995 0.80172289 0.060674966 0.56301153 0.38523352 0.10923447 0.47034604 0.16641582 0.18778965 0.43108177 0.3340818 0.30683461 0.80995113 1.1522226 0.5408318 0.90570745 0.73703156 0.055853564 0.20591019 -0.015736798 0.090974722 -0.22159296 -0.2804552 -0.44835145
-1.2737656000000002 -0.66548051 -0.69212143 -0.25276116 0.077724652 0.04161385 0.47523099 0.80391968 0.91850262 1.1074806000000001 0.77580526 1.052794 1.0120119 0.72443783 0.95483584 0.63820354 0.80321316 0.80865492 0.35048747 0.59308132 0.81393851 0.63892725 0.46192926 1.3950243 0.24079772 0.058935947999999995 0.80172289 0.060674966 0.56301153 0.38523352 0.10923447 0.47034604 0.16641582 0.18778965 0.43108177 0.3340818 0.30683461 0.80995113 1.1522226 0.5408318 0.90570745 0.73703156 0.055853564 0.20591019 -0.015736798 0.090974722 -0.22159296 -0.2804552 -0.44835145 -0.04101777
-0.66548051 -0.69212143 -0.25276116 0.077724652 0.04161385 0.47523099 0.80391968 0.91850262 1.1074806000000001 0.77580526 1.052794 1.0120119 0.72443783 0.95483584 0.63820354 0.80321316 0.80865492 0.35048747 0.59308132 0.81393851 0.63892725 0.46192926 1.3950243 0.24079772 0.058935947999999995 0.80172289 0.060674966 0.56301153 0.38523352 0.10923447 0.47034604 0.16641582 0.18778965 0.43108177 0.3340818 0.30683461 0.80995113 1.1522226 0.5408318 0.90570745 0.73703156 0.055853564 0.20591019 -0.015736798 0.090974722 -0.22159296 -0.2804552 -0.44835145 -0.04101777 0.037214251000000004
-0.69212143 -0.25276116 0.077724652 0.04161385 0.47523099 0.80391968 0.91850262 1.1074806000000001 0.77580526 1.052794 1.0120119 0.72443783 0.95483584 0.63820354 0.80321316 0.80865492 0.35048747 0.59308132 0.81393851 0.63892725 0.46192926 1.3950243 0.24079772 0.058935947999999995 0.80172289 0.060674966 0.56301153 0.38523352 0.10923447 0.47034604 0.16641582 0.18778965 0.43108177 0.3340818 0.30683461 0.80995113 1.1522226 0.5408318 0.90570745 0.73703156 0.055853564 0.20591019 -0.015736798 0.090974722 -0.22159296 -0.2804552 -0.44835145 -0.04101777 0.037214251000000004 -0.19196349
-0.25276116 0.077724652 0.04161385 0.47523099 0.80391968 0.91850262 1.1074806000000001 0.77580526 1.052794 1.0120119 0.72443783 0.95483584 0.63820354 0.80321316 0.80865492 0.35048747 0.59308132 0.81393851 0.63892725 0.46192926 1.3950243 0.24079772 0.058935947999999995 0.80172289 0.060674966 0.56301153 0.38523352 0.10923447 0.47034604 0.16641582 0.18778965 0.43108177 0.3340818 0.30683461 0.80995113 1.1522226 0.5408318 0.90570745 0.73703156 0.055853564 0.20591019 -0.015736798 0.090974722 -0.22159296 -0.2804552 -0.44835145 -0.04101777 0.037214251000000004 -0.19196349 -0.33125672
0.077724652 0.04161385 0.47523099 0.80391968 0.91850262 1.1074806000000001 0.77580526 1.052794 1.0120119 0.72443783 0.95483584 0.63820354 0.80321316 0.80865492 0.35048747 0.59308132 0.81393851 0.63892725 0.46192926 1.3950243 0.24079772 0.058935947999999995 0.80172289 0.060674966 0.56301153 0.38523352 0.10923447 0.47034604 0.16641582 0.18778965 0.43108177 0.3340818 0.30683461 0.80995113 1.1522226 0.5408318 0.90570745 0.73703156 0.055853564 0.20591019 -0.015736798 0.090974722 -0.22159296 -0.2804552 -0.44835145 -0.04101777 0.037214251000000004 -0.19196349 -0.33125672 -0.05707169
0.04161385 0.47523099 0.80391968 0.91850262 1.1074806000000001 0.77580526 1.052794 1.0120119 0.72443783 0.95483584 0.63820354 0.80321316 0.80865492 0.35048747 0.59308132 0.81393851 0.63892725 0.46192926 1.3950243 0.24079772 0.058935947999999995 0.80172289 0.060674966 0.56301153 0.38523352 0.10923447 0.47034604 0.16641582 0.18778965 0.43108177 0.3340818 0.30683461 0.80995113 1.1522226 0.5408318 0.90570745 0.73703156 0.055853564 0.20591019 -0.015736798 0.090974722 -0.22159296 -0.2804552 -0.44835145 -0.04101777 0.037214251000000004 -0.19196349 -0.33125672 -0.05707169 -0.044218663
0.47523099 0.80391968 0.91850262 1.1074806000000001 0.77580526 1.052794 1.0120119 0.72443783 0.95483584 0.63820354 0.80321316 0.80865492 0.35048747 0.59308132 0.81393851 0.63892725 0.46192926 1.3950243 0.24079772 0.058935947999999995 0.80172289 0.060674966 0.56301153 0.38523352 0.10923447 0.47034604 0.16641582 0.18778965 0.43108177 0.3340818 0.30683461 0.80995113 1.1522226 0.5408318 0.90570745 0.73703156 0.055853564 0.20591019 -0.015736798 0.090974722 -0.22159296 -0.2804552 -0.44835145 -0.04101777 0.037214251000000004 -0.19196349 -0.33125672 -0.05707169 -0.044218663 -0.21300695
0.80391968 0.91850262 1.1074806000000001 0.77580526 1.052794 1.0120119 0.72443783 0.95483584 0.63820354 0.80321316 0.80865492 0.35048747 0.59308132 0.81393851 0.63892725 0.46192926 1.3950243 0.24079772 0.058935947999999995 0.80172289 0.060674966 0.56301153 0.38523352 0.10923447 0.47034604 0.16641582 0.18778965 0.43108177 0.3340818 0.30683461 0.80995113 1.1522226 0.5408318 0.90570745 0.73703156 0.055853564 0.20591019 -0.015736798 0.090974722 -0.22159296 -0.2804552 -0.44835145 -0.04101777 0.037214251000000004 -0.19196349 -0.33125672 -0.05707169 -0.044218663 -0.21300695 -0.14713871
0.91850262 1.1074806000000001 0.77580526 1.052794 1.0120119 0.72443783 0.95483584 0.63820354 0.80321316 0.80865492 0.35048747 0.59308132 0.81393851 0.63892725 0.46192926 1.3950243 0.24079772 0.058935947999999995 0.80172289 0.060674966 0.56301153 0.38523352 0.10923447 0.47034604 0.16641582 0.18778965 0.43108177 0.3340818 0.30683461 0.80995113 1.1522226 0.5408318 0.90570745 0.73703156 0.055853564 0.20591019 -0.015736798 0.090974722 -0.22159296 -0.2804552 -0.44835145 -0.04101777 0.037214251000000004 -0.19196349 -0.33125672 -0.05707169 -0.044218663 -0.21300695 -0.14713871 -0.14602941
1.1074806000000001 0.77580526 1.052794 1.0120119 0.72443783 0.95483584 0.63820354 0.80321316 0.80865492 0.35048747 0.59308132 0.81393851 0.63892725 0.46192926 1.3950243 0.24079772 0.058935947999999995 0.80172289 0.060674966 0.56301153 0.38523352 0.10923447 0.47034604 0.16641582 0.18778965 0.43108177 0.3340818 0.30683461 0.80995113 1.1522226 0.5408318 0.90570745 0.73703156 0.055853564 0.20591019 -0.015736798 0.090974722 -0.22159296 -0.2804552 -0.44835145 -0.04101777 0.037214251000000004 -0.19196349 -0.33125672 -0.05707169 -0.044218663 -0.21300695 -0.14713871 -0.14602941 0.08634313800000001
0.77580526 1.052794 1.0120119 0.72443783 0.95483584 0.63820354 0.80321316 0.80865492 0.35048747 0.59308132 0.81393851 0.63892725 0.46192926 1.3950243 0.24079772 0.058935947999999995 0.80172289 0.060674966 0.56301153 0.38523352 0.10923447 0.47034604 0.16641582 0.18778965 0.43108177 0.3340818 0.30683461 0.80995113 1.1522226 0.5408318 0.90570745 0.73703156 0.055853564 0.20591019 -0.015736798 0.090974722 -0.22159296 -0.2804552 -0.44835145 -0.04101777 0.037214251000000004 -0.19196349 -0.33125672 -0.05707169 -0.044218663 -0.21300695 -0.14713871 -0.14602941 0.08634313800000001 -0.14779453
