1.3510633 2.8253475 2.6405387000000005 1.2185972 -0.056741817 1.1969524999999999 0.72468158 0.96665163 0.54982412 -0.98860325 -1.0896611999999999 -1.3796467 -1.4933006000000002 -1.5358863999999999 -1.6085794 -1.7979363999999998 -1.8713879 -1.8084146 -1.9634411 -1.8674521000000002 -1.9725183999999998 -1.974003 -1.8118577 -1.7760929 -1.6584819 -1.5790928 -1.2089553999999998 -0.95651798 -0.57893192 0.0091407399 0.41393379 0.79693596 1.1532698000000001 1.3466296 1.5805981000000002 1.6579084 1.5706004 1.4357052 1.3710045 1.1873345 0.97515895 0.90662467 0.80631102 0.79696583 0.60693675 0.64409607 0.43638846 0.4173406 0.39732821 0.27774806
2.8253475 2.6405387000000005 1.2185972 -0.056741817 1.1969524999999999 0.72468158 0.96665163 0.54982412 -0.98860325 -1.0896611999999999 -1.3796467 -1.4933006000000002 -1.5358863999999999 -1.6085794 -1.7979363999999998 -1.8713879 -1.8084146 -1.9634411 -1.8674521000000002 -1.9725183999999998 -1.974003 -1.8118577 -1.7760929 -1.6584819 -1.5790928 -1.2089553999999998 -0.95651798 -0.57893192 0.0091407399 0.41393379 0.79693596 1.1532698000000001 1.3466296 1.5805981000000002 1.6579084 1.5706004 1.4357052 1.3710045 1.1873345 0.97515895 0.90662467 0.80631102 0.79696583 0.60693675 0.64409607 0.43638846 0.4173406 0.39732821 0.27774806 0.3563615
2.6405387000000005 1.2185972 -0.056741817 1.1969524999999999 0.72468158 0.96665163 0.54982412 -0.98860325 -1.0896611999999999 -1.3796467 -1.4933006000000002 -1.5358863999999999 -1.6085794 -1.7979363999999998 -1.8713879 -1.8084146 -1.9634411 -1.8674521000000002 -1.9725183999999998 -1.974003 -1.8118577 -1.7760929 -1.6584819 -1.5790928 -1.2089553999999998 -0.95651798 -0.57893192 0.0091407399 0.41393379 0.79693596 1.1532698000000001 1.3466296 1.5805981000000002 1.6579084 1.5706004 1.4357052 1.3710045 1.1873345 0.97515895 0.90662467 0.80631102 0.79696583 0.60693675 0.64409607 0.43638846 0.4173406 0.39732821 0.27774806 0.3563615 0.22353753
1.2185972 -0.056741817 1.1969524999999999 0.72468158 0.96665163 0.54982412 -0.98860325 -1.0896611999999999 -1.3796467 -1.4933006000000002 -1.5358863999999999 -1.6085794 -1.7979363999999998 -1.8713879 -1.8084146 -1.9634411 -1.8674521000000002 -1.9725183999999998 -1.974003 -1.8118577 -1.7760929 -1.6584819 -1.5790928 -1.2089553999999998 -0.95651798 -0.57893192 0.0091407399 0.41393379 0.79693596 1.1532698000000001 1.3466296 1.5805981000000002 1.6579084 1.5706004 1.4357052 1.3710045 1.1873345 0.97515895 0.90662467 0.80631102 0.79696583 0.60693675 0.64409607 0.43638846 0.4173406 0.39732821 0.27774806 0.3563615 0.22353753 0.21887800000000002
-0.056741817 1.1969524999999999 0.72468158 0.96665163 0.54982412 -0.98860325 -1.0896611999999999 -1.3796467 -1.4933006000000002 -1.5358863999999999 -1.6085794 -1.7979363999999998 -1.8713879 -1.8084146 -1.9634411 -1.8674521000000002 -1.9725183999999998 -1.974003 -1.8118577 -1.7760929 -1.6584819 -1.5790928 -1.2089553999999998 -0.95651798 -0.57893192 0.0091407399 0.41393379 0.79693596 1.1532698000000001 1.3466296 1.5805981000000002 1.6579084 1.5706004 1.4357052 1.3710045 1.1873345 0.97515895 0.90662467 0.80631102 0.79696583 0.60693675 0.64409607 0.43638846 0.4173406 0.39732821 0.27774806 0.3563615 0.22353753 0.21887800000000002 0.21645073
1.1969524999999999 0.72468158 0.96665163 0.54982412 -0.98860325 -1.0896611999999999 -1.3796467 -1.4933006000000002 -1.5358863999999999 -1.6085794 -1.7979363999999998 -1.8713879 -1.8084146 -1.9634411 -1.8674521000000002 -1.9725183999999998 -1.974003 -1.8118577 -1.7760929 -1.6584819 -1.5790928 -1.2089553999999998 -0.95651798 -0.57893192 0.0091407399 0.41393379 0.79693596 1.1532698000000001 1.3466296 1.5805981000000002 1.6579084 1.5706004 1.4357052 1.3710045 1.1873345 0.97515895 0.90662467 0.80631102 0.79696583 0.60693675 0.64409607 0.43638846 0.4173406 0.39732821 0.27774806 0.3563615 0.22353753 0.21887800000000002 0.21645073 0.22628126
0.72468158 0.96665163 0.54982412 -0.98860325 -1.0896611999999999 -1.3796467 -1.4933006000000002 -1.5358863999999999 -1.6085794 -1.7979363999999998 -1.8713879 -1.8084146 -1.9634411 -1.8674521000000002 -1.9725183999999998 -1.974003 -1.8118577 -1.7760929 -1.6584819 -1.5790928 -1.2089553999999998 -0.95651798 -0.57893192 0.0091407399 0.41393379 0.79693596 1.1532698000000001 1.3466296 1.5805981000000002 1.6579084 1.5706004 1.4357052 1.3710045 1.1873345 0.97515895 0.90662467 0.80631102 0.79696583 0.60693675 0.64409607 0.43638846 0.4173406 0.39732821 0.27774806 0.3563615 0.22353753 0.21887800000000002 0.21645073 0.22628126 0.051749369
0.96665163 0.54982412 -0.98860325 -1.0896611999999999 -1.3796467 -1.4933006000000002 -1.5358863999999999 -1.6085794 -1.7979363999999998 -1.8713879 -1.8084146 -1.9634411 -1.8674521000000002 -1.9725183999999998 -1.974003 -1.8118577 -1.7760929 -1.6584819 -1.5790928 -1.2089553999999998 -0.95651798 -0.57893192 0.0091407399 0.41393379 0.79693596 1.1532698000000001 1.3466296 1.5805981000000002 1.6579084 1.5706004 1.4357052 1.3710045 1.1873345 0.97515895 0.90662467 0.80631102 0.79696583 0.60693675 0.64409607 0.43638846 0.4173406 0.39732821 0.27774806 0.3563615 0.22353753 0.21887800000000002 0.21645073 0.22628126 0.051749369 0.057490234
0.54982412 -0.98860325 -1.0896611999999999 -1.3796467 -1.4933006000000002 -1.5358863999999999 -1.6085794 -1.7979363999999998 -1.8713879 -1.8084146 -1.9634411 -1.8674521000000002 -1.9725183999999998 -1.974003 -1.8118577 -1.7760929 -1.6584819 -1.5790928 -1.2089553999999998 -0.95651798 -0.57893192 0.0091407399 0.41393379 0.79693596 1.1532698000000001 1.3466296 1.5805981000000002 1.6579084 1.5706004 1.4357052 1.3710045 1.1873345 0.97515895 0.90662467 0.80631102 0.79696583 0.60693675 0.64409607 0.43638846 0.4173406 0.39732821 0.27774806 0.3563615 0.22353753 0.21887800000000002 0.21645073 0.22628126 0.051749369 0.057490234 0.14059423
-0.98860325 -1.0896611999999999 -1.3796467 -1.4933006000000002 -1.5358863999999999 -1.6085794 -1.7979363999999998 -1.8713879 -1.8084146 -1.9634411 -1.8674521000000002 -1.9725183999999998 -1.974003 -1.8118577 -1.7760929 -1.6584819 -1.5790928 -1.2089553999999998 -0.95651798 -0.57893192 0.0091407399 0.41393379 0.79693596 1.1532698000000001 1.3466296 1.5805981000000002 1.6579084 1.5706004 1.4357052 1.3710045 1.1873345 0.97515895 0.90662467 0.80631102 0.79696583 0.60693675 0.64409607 0.43638846 0.4173406 0.39732821 0.27774806 0.3563615 0.22353753 0.21887800000000002 0.21645073 0.22628126 0.051749369 0.057490234 0.14059423 0.0081304607
-1.0896611999999999 -1.3796467 -1.4933006000000002 -1.5358863999999999 -1.6085794 -1.7979363999999998 -1.8713879 -1.8084146 -1.9634411 -1.8674521000000002 -1.9725183999999998 -1.974003 -1.8118577 -1.7760929 -1.6584819 -1.5790928 -1.2089553999999998 -0.95651798 -0.57893192 0.0091407399 0.41393379 0.79693596 1.1532698000000001 1.3466296 1.5805981000000002 1.6579084 1.5706004 1.4357052 1.3710045 1.1873345 0.97515895 0.90662467 0.80631102 0.79696583 0.60693675 0.64409607 0.43638846 0.4173406 0.39732821 0.27774806 0.3563615 0.22353753 0.21887800000000002 0.21645073 0.22628126 0.051749369 0.057490234 0.14059423 0.0081304607 -0.013382516
-1.3796467 -1.4933006000000002 -1.5358863999999999 -1.6085794 -1.7979363999999998 -1.8713879 -1.8084146 -1.9634411 -1.8674521000000002 -1.9725183999999998 -1.974003 -1.8118577 -1.7760929 -1.6584819 -1.5790928 -1.2089553999999998 -0.95651798 -0.57893192 0.0091407399 0.41393379 0.79693596 1.1532698000000001 1.3466296 1.5805981000000002 1.6579084 1.5706004 1.4357052 1.3710045 1.1873345 0.97515895 0.90662467 0.80631102 0.79696583 0.60693675 0.64409607 0.43638846 0.4173406 0.39732821 0.27774806 0.3563615 0.22353753 0.21887800000000002 0.21645073 0.22628126 0.051749369 0.057490234 0.14059423 0.0081304607 -0.013382516 0.042685178
-1.4933006000000002 -1.5358863999999999 -1.6085794 -1.7979363999999998 -1.8713879 -1.8084146 -1.9634411 -1.8674521000000002 -1.9725183999999998 -1.974003 -1.8118577 -1.7760929 -1.6584819 -1.5790928 -1.2089553999999998 -0.95651798 -0.57893192 0.0091407399 0.41393379 0.79693596 1.1532698000000001 1.3466296 1.5805981000000002 1.6579084 1.5706004 1.4357052 1.3710045 1.1873345 0.97515895 0.90662467 0.80631102 0.79696583 0.60693675 0.64409607 0.43638846 0.4173406 0.39732821 0.27774806 0.3563615 0.22353753 0.21887800000000002 0.21645073 0.22628126 0.051749369 0.057490234 0.14059423 0.0081304607 -0.013382516 0.042685178 0.062064605
-1.5358863999999999 -1.6085794 -1.7979363999999998 -1.8713879 -1.8084146 -1.9634411 -1.8674521000000002 -1.9725183999999998 -1.974003 -1.8118577 -1.7760929 -1.6584819 -1.5790928 -1.2089553999999998 -0.95651798 -0.57893192 0.0091407399 0.41393379 0.79693596 1.1532698000000001 1.3466296 1.5805981000000002 1.6579084 1.5706004 1.4357052 1.3710045 1.1873345 0.97515895 0.90662467 0.80631102 0.79696583 0.60693675 0.64409607 0.43638846 0.4173406 0.39732821 0.27774806 0.3563615 0.22353753 0.21887800000000002 0.21645073 0.22628126 0.051749369 0.057490234 0.14059423 0.0081304607 -0.013382516 0.042685178 0.062064605 -0.057979348
-1.6085794 -1.7979363999999998 -1.8713879 -1.8084146 -1.9634411 -1.8674521000000002 -1.9725183999999998 -1.974003 -1.8118577 -1.7760929 -1.6584819 -1.5790928 -1.2089553999999998 -0.95651798 -0.57893192 0.0091407399 0.41393379 0.79693596 1.1532698000000001 1.3466296 1.5805981000000002 1.6579084 1.5706004 1.4357052 1.3710045 1.1873345 0.97515895 0.90662467 0.80631102 0.79696583 0.60693675 0.64409607 0.43638846 0.4173406 0.39732821 0.27774806 0.3563615 0.22353753 0.21887800000000002 0.21645073 0.22628126 0.051749369 0.057490234 0.14059423 0.0081304607 -0.013382516 0.042685178 0.062064605 -0.057979348 -0.05566184
-1.7979363999999998 -1.8713879 -1.8084146 -1.9634411 -1.8674521000000002 -1.9725183999999998 -1.974003 -1.8118577 -1.7760929 -1.6584819 -1.5790928 -1.2089553999999998 -0.95651798 -0.57893192 0.0091407399 0.41393379 0.79693596 1.1532698000000001 1.3466296 1.5805981000000002 1.6579084 1.5706004 1.4357052 1.3710045 1.1873345 0.97515895 0.90662467 0.80631102 0.79696583 0.60693675 0.64409607 0.43638846 0.4173406 0.39732821 0.27774806 0.3563615 0.22353753 0.21887800000000002 0.21645073 0.22628126 0.051749369 0.057490234 0.14059423 0.0081304607 -0.013382516 0.042685178 0.062064605 -0.057979348 -0.05566184 0.062631029
-1.8713879 -1.8084146 -1.9634411 -1.8674521000000002 -1.9725183999999998 -1.974003 -1.8118577 -1.7760929 -1.6584819 -1.5790928 -1.2089553999999998 -0.95651798 -0.57893192 0.0091407399 0.41393379 0.79693596 1.1532698000000001 1.3466296 1.5805981000000002 1.6579084 1.5706004 1.4357052 1.3710045 1.1873345 0.97515895 0.90662467 0.80631102 0.79696583 0.60693675 0.64409607 0.43638846 0.4173406 0.39732821 0.27774806 0.3563615 0.22353753 0.21887800000000002 0.21645073 0.22628126 0.051749369 0.057490234 0.14059423 0.0081304607 -0.013382516 0.042685178 0.062064605 -0.057979348 -0.05566184 0.062631029 -0.15101682
-1.8084146 -1.9634411 -1.8674521000000002 -1.9725183999999998 -1.974003 -1.8118577 -1.7760929 -1.6584819 -1.5790928 -1.2089553999999998 -0.95651798 -0.57893192 0.0091407399 0.41393379 0.79693596 1.1532698000000001 1.3466296 1.5805981000000002 1.6579084 1.5706004 1.4357052 1.3710045 1.1873345 0.97515895 0.90662467 0.80631102 0.79696583 0.60693675 0.64409607 0.43638846 0.4173406 0.39732821 0.27774806 0.3563615 0.22353753 0.21887800000000002 0.21645073 0.22628126 0.051749369 0.057490234 0.14059423 0.0081304607 -0.013382516 0.042685178 0.062064605 -0.057979348 -0.05566184 0.062631029 -0.15101682 0.016422729
-1.9634411 -1.8674521000000002 -1.9725183999999998 -1.974003 -1.8118577 -1.7760929 -1.6584819 -1.5790928 -1.2089553999999998 -0.95651798 -0.57893192 0.0091407399 0.41393379 0.79693596 1.1532698000000001 1.3466296 1.5805981000000002 1.6579084 1.5706004 1.4357052 1.3710045 1.1873345 0.97515895 0.90662467 0.80631102 0.79696583 0.60693675 0.64409607 0.43638846 0.4173406 0.39732821 0.27774806 0.3563615 0.22353753 0.21887800000000002 0.21645073 0.22628126 0.051749369 0.057490234 0.14059423 0.0081304607 -0.013382516 0.042685178 0.062064605 -0.057979348 -0.05566184 0.062631029 -0.15101682 0.016422729 0.032865136
-1.8674521000000002 -1.9725183999999998 -1.974003 -1.8118577 -1.7760929 -1.6584819 -1.5790928 -1.2089553999999998 -0.95651798 -0.57893192 0.0091407399 0.41393379 0.79693596 1.1532698000000001 1.3466296 1.5805981000000002 1.6579084 1.5706004 1.4357052 1.3710045 1.1873345 0.97515895 0.90662467 0.80631102 0.79696583 0.60693675 0.64409607 0.43638846 0.4173406 0.39732821 0.27774806 0.3563615 0.22353753 0.21887800000000002 0.21645073 0.22628126 0.051749369 0.057490234 0.14059423 0.0081304607 -0.013382516 0.042685178 0.062064605 -0.057979348 -0.05566184 0.062631029 -0.15101682 0.016422729 0.032865136 -0.14212168
-1.9725183999999998 -1.974003 -1.8118577 -1.7760929 -1.6584819 -1.5790928 -1.2089553999999998 -0.95651798 -0.57893192 0.0091407399 0.41393379 0.79693596 1.1532698000000001 1.3466296 1.5805981000000002 1.6579084 1.5706004 1.4357052 1.3710045 1.1873345 0.97515895 0.90662467 0.80631102 0.79696583 0.60693675 0.64409607 0.43638846 0.4173406 0.39732821 0.27774806 0.3563615 0.22353753 0.21887800000000002 0.21645073 0.22628126 0.051749369 0.057490234 0.14059423 0.0081304607 -0.013382516 0.042685178 0.062064605 -0.057979348 -0.05566184 0.062631029 -0.15101682 0.016422729 0.032865136 -0.14212168 -0.043954713
-1.974003 -1.8118577 -1.7760929 -1.6584819 -1.5790928 -1.2089553999999998 -0.95651798 -0.57893192 0.0091407399 0.41393379 0.79693596 1.1532698000000001 1.3466296 1.5805981000000002 1.6579084 1.5706004 1.4357052 1.3710045 1.1873345 0.97515895 0.90662467 0.80631102 0.79696583 0.60693675 0.64409607 0.43638846 0.4173406 0.39732821 0.27774806 0.3563615 0.22353753 0.21887800000000002 0.21645073 0.22628126 0.051749369 0.057490234 0.14059423 0.0081304607 -0.013382516 0.042685178 0.062064605 -0.057979348 -0.05566184 0.062631029 -0.15101682 0.016422729 0.032865136 -0.14212168 -0.043954713 0.0019502207000000001
-1.8118577 -1.7760929 -1.6584819 -1.5790928 -1.2089553999999998 -0.95651798 -0.57893192 0.0091407399 0.41393379 0.79693596 1.1532698000000001 1.3466296 1.5805981000000002 1.6579084 1.5706004 1.4357052 1.3710045 1.1873345 0.97515895 0.90662467 0.80631102 0.79696583 0.60693675 0.64409607 0.43638846 0.4173406 0.39732821 0.27774806 0.3563615 0.22353753 0.21887800000000002 0.21645073 0.22628126 0.051749369 0.057490234 0.14059423 0.0081304607 -0.013382516 0.042685178 0.062064605 -0.057979348 -0.05566184 0.062631029 -0.15101682 0.016422729 0.032865136 -0.14212168 -0.043954713 0.0019502207000000001 -0.023239864
-1.7760929 -1.6584819 -1.5790928 -1.2089553999999998 -0.95651798 -0.57893192 0.0091407399 0.41393379 0.79693596 1.1532698000000001 1.3466296 1.5805981000000002 1.6579084 1.5706004 1.4357052 1.3710045 1.1873345 0.97515895 0.90662467 0.80631102 0.79696583 0.60693675 0.64409607 0.43638846 0.4173406 0.39732821 0.27774806 0.3563615 0.22353753 0.21887800000000002 0.21645073 0.22628126 0.051749369 0.057490234 0.14059423 0.0081304607 -0.013382516 0.042685178 0.062064605 -0.057979348 -0.05566184 0.062631029 -0.15101682 0.016422729 0.032865136 -0.14212168 -0.043954713 0.0019502207000000001 -0.023239864 -0.043992575
-1.6584819 -1.5790928 -1.2089553999999998 -0.95651798 -0.57893192 0.0091407399 0.41393379 0.79693596 1.1532698000000001 1.3466296 1.5805981000000002 1.6579084 1.5706004 1.4357052 1.3710045 1.1873345 0.97515895 0.90662467 0.80631102 0.79696583 0.60693675 0.64409607 0.43638846 0.4173406 0.39732821 0.27774806 0.3563615 0.22353753 0.21887800000000002 0.21645073 0.22628126 0.051749369 0.057490234 0.14059423 0.0081304607 -0.013382516 0.042685178 0.062064605 -0.057979348 -0.05566184 0.062631029 -0.15101682 0.016422729 0.032865136 -0.14212168 -0.043954713 0.0019502207000000001 -0.023239864 -0.043992575 0.028251186
-1.5790928 -1.2089553999999998 -0.95651798 -0.57893192 0.0091407399 0.41393379 0.79693596 1.1532698000000001 1.3466296 1.5805981000000002 1.6579084 1.5706004 1.4357052 1.3710045 1.1873345 0.97515895 0.90662467 0.80631102 0.79696583 0.60693675 0.64409607 0.43638846 0.4173406 0.39732821 0.27774806 0.3563615 0.22353753 0.21887800000000002 0.21645073 0.22628126 0.051749369 0.057490234 0.14059423 0.0081304607 -0.013382516 0.042685178 0.062064605 -0.057979348 -0.05566184 0.062631029 -0.15101682 0.016422729 0.032865136 -0.14212168 -0.043954713 0.0019502207000000001 -0.023239864 -0.043992575 0.028251186 -0.037340248
-1.2089553999999998 -0.95651798 -0.57893192 0.0091407399 0.41393379 0.79693596 1.1532698000000001 1.3466296 1.5805981000000002 1.6579084 1.5706004 1.4357052 1.3710045 1.1873345 0.97515895 0.90662467 0.80631102 0.79696583 0.60693675 0.64409607 0.43638846 0.4173406 0.39732821 0.27774806 0.3563615 0.22353753 0.21887800000000002 0.21645073 0.22628126 0.051749369 0.057490234 0.14059423 0.0081304607 -0.013382516 0.042685178 0.062064605 -0.057979348 -0.05566184 0.062631029 -0.15101682 0.016422729 0.032865136 -0.14212168 -0.043954713 0.0019502207000000001 -0.023239864 -0.043992575 0.028251186 -0.037340248 -0.011156313000000001
-0.95651798 -0.57893192 0.0091407399 0.41393379 0.79693596 1.1532698000000001 1.3466296 1.5805981000000002 1.6579084 1.5706004 1.4357052 1.3710045 1.1873345 0.97515895 0.90662467 0.80631102 0.79696583 0.60693675 0.64409607 0.43638846 0.4173406 0.39732821 0.27774806 0.3563615 0.22353753 0.21887800000000002 0.21645073 0.22628126 0.051749369 0.057490234 0.14059423 0.0081304607 -0.013382516 0.042685178 0.062064605 -0.057979348 -0.05566184 0.062631029 -0.15101682 0.016422729 0.032865136 -0.14212168 -0.043954713 0.0019502207000000001 -0.023239864 -0.043992575 0.028251186 -0.037340248 -0.011156313000000001 0.0041186808
-0.57893192 0.0091407399 0.41393379 0.79693596 1.1532698000000001 1.3466296 1.5805981000000002 1.6579084 1.5706004 1.4357052 1.3710045 1.1873345 0.97515895 0.90662467 0.80631102 0.79696583 0.60693675 0.64409607 0.43638846 0.4173406 0.39732821 0.27774806 0.3563615 0.22353753 0.21887800000000002 0.21645073 0.22628126 0.051749369 0.057490234 0.14059423 0.0081304607 -0.013382516 0.042685178 0.062064605 -0.057979348 -0.05566184 0.062631029 -0.15101682 0.016422729 0.032865136 -0.14212168 -0.043954713 0.0019502207000000001 -0.023239864 -0.043992575 0.028251186 -0.037340248 -0.011156313000000001 0.0041186808 0.0062360765
0.0091407399 0.41393379 0.79693596 1.1532698000000001 1.3466296 1.5805981000000002 1.6579084 1.5706004 1.4357052 1.3710045 1.1873345 0.97515895 0.90662467 0.80631102 0.79696583 0.60693675 0.64409607 0.43638846 0.4173406 0.39732821 0.27774806 0.3563615 0.22353753 0.21887800000000002 0.21645073 0.22628126 0.051749369 0.057490234 0.14059423 0.0081304607 -0.013382516 0.042685178 0.062064605 -0.057979348 -0.05566184 0.062631029 -0.15101682 0.016422729 0.032865136 -0.14212168 -0.043954713 0.0019502207000000001 -0.023239864 -0.043992575 0.028251186 -0.037340248 -0.011156313000000001 0.0041186808 0.0062360765 0.22729099
0.41393379 0.79693596 1.1532698000000001 1.3466296 1.5805981000000002 1.6579084 1.5706004 1.4357052 1.3710045 1.1873345 0.97515895 0.90662467 0.80631102 0.79696583 0.60693675 0.64409607 0.43638846 0.4173406 0.39732821 0.27774806 0.3563615 0.22353753 0.21887800000000002 0.21645073 0.22628126 0.051749369 0.057490234 0.14059423 0.0081304607 -0.013382516 0.042685178 0.062064605 -0.057979348 -0.05566184 0.062631029 -0.15101682 0.016422729 0.032865136 -0.14212168 -0.043954713 0.0019502207000000001 -0.023239864 -0.043992575 0.028251186 -0.037340248 -0.011156313000000001 0.0041186808 0.0062360765 0.22729099 0.37901905
0.79693596 1.1532698000000001 1.3466296 1.5805981000000002 1.6579084 1.5706004 1.4357052 1.3710045 1.1873345 0.97515895 0.90662467 0.80631102 0.79696583 0.60693675 0.64409607 0.43638846 0.4173406 0.39732821 0.27774806 0.3563615 0.22353753 0.21887800000000002 0.21645073 0.22628126 0.051749369 0.057490234 0.14059423 0.0081304607 -0.013382516 0.042685178 0.062064605 -0.057979348 -0.05566184 0.062631029 -0.15101682 0.016422729 0.032865136 -0.14212168 -0.043954713 0.0019502207000000001 -0.023239864 -0.043992575 0.028251186 -0.037340248 -0.011156313000000001 0.0041186808 0.0062360765 0.22729099 0.37901905 0.40506216
1.1532698000000001 1.3466296 1.5805981000000002 1.6579084 1.5706004 1.4357052 1.3710045 1.1873345 0.97515895 0.90662467 0.80631102 0.79696583 0.60693675 0.64409607 0.43638846 0.4173406 0.39732821 0.27774806 0.3563615 0.22353753 0.21887800000000002 0.21645073 0.22628126 0.051749369 0.057490234 0.14059423 0.0081304607 -0.013382516 0.042685178 0.062064605 -0.057979348 -0.05566184 0.062631029 -0.15101682 0.016422729 0.032865136 -0.14212168 -0.043954713 0.0019502207000000001 -0.023239864 -0.043992575 0.028251186 -0.037340248 -0.011156313000000001 0.0041186808 0.0062360765 0.22729099 0.37901905 0.40506216 0.19951882
1.3466296 1.5805981000000002 1.6579084 1.5706004 1.4357052 1.3710045 1.1873345 0.97515895 0.90662467 0.80631102 0.79696583 0.60693675 0.64409607 0.43638846 0.4173406 0.39732821 0.27774806 0.3563615 0.22353753 0.21887800000000002 0.21645073 0.22628126 0.051749369 0.057490234 0.14059423 0.0081304607 -0.013382516 0.042685178 0.062064605 -0.057979348 -0.05566184 0.062631029 -0.15101682 0.016422729 0.032865136 -0.14212168 -0.043954713 0.0019502207000000001 -0.023239864 -0.043992575 0.028251186 -0.037340248 -0.011156313000000001 0.0041186808 0.0062360765 0.22729099 0.37901905 0.40506216 0.19951882 0.29168416
1.5805981000000002 1.6579084 1.5706004 1.4357052 1.3710045 1.1873345 0.97515895 0.90662467 0.80631102 0.79696583 0.60693675 0.64409607 0.43638846 0.4173406 0.39732821 0.27774806 0.3563615 0.22353753 0.21887800000000002 0.21645073 0.22628126 0.051749369 0.057490234 0.14059423 0.0081304607 -0.013382516 0.042685178 0.062064605 -0.057979348 -0.05566184 0.062631029 -0.15101682 0.016422729 0.032865136 -0.14212168 -0.043954713 0.0019502207000000001 -0.023239864 -0.043992575 0.028251186 -0.037340248 -0.011156313000000001 0.0041186808 0.0062360765 0.22729099 0.37901905 0.40506216 0.19951882 0.29168416 -0.027799432000000002
1.6579084 1.5706004 1.4357052 1.3710045 1.1873345 0.97515895 0.90662467 0.80631102 0.79696583 0.60693675 0.64409607 0.43638846 0.4173406 0.39732821 0.27774806 0.3563615 0.22353753 0.21887800000000002 0.21645073 0.22628126 0.051749369 0.057490234 0.14059423 0.0081304607 -0.013382516 0.042685178 0.062064605 -0.057979348 -0.05566184 0.062631029 -0.15101682 0.016422729 0.032865136 -0.14212168 -0.043954713 0.0019502207000000001 -0.023239864 -0.043992575 0.028251186 -0.037340248 -0.011156313000000001 0.0041186808 0.0062360765 0.22729099 0.37901905 0.40506216 0.19951882 0.29168416 -0.027799432000000002 -0.19868525
1.5706004 1.4357052 1.3710045 1.1873345 0.97515895 0.90662467 0.80631102 0.79696583 0.60693675 0.64409607 0.43638846 0.4173406 0.39732821 0.27774806 0.3563615 0.22353753 0.21887800000000002 0.21645073 0.22628126 0.051749369 0.057490234 0.14059423 0.0081304607 -0.013382516 0.042685178 0.062064605 -0.057979348 -0.05566184 0.062631029 -0.15101682 0.016422729 0.032865136 -0.14212168 -0.043954713 0.0019502207000000001 -0.023239864 -0.043992575 0.028251186 -0.037340248 -0.011156313000000001 0.0041186808 0.0062360765 0.22729099 0.37901905 0.40506216 0.19951882 0.29168416 -0.027799432000000002 -0.19868525 -0.17073811
1.4357052 1.3710045 1.1873345 0.97515895 0.90662467 0.80631102 0.79696583 0.60693675 0.64409607 0.43638846 0.4173406 0.39732821 0.27774806 0.3563615 0.22353753 0.21887800000000002 0.21645073 0.22628126 0.051749369 0.057490234 0.14059423 0.0081304607 -0.013382516 0.042685178 0.062064605 -0.057979348 -0.05566184 0.062631029 -0.15101682 0.016422729 0.032865136 -0.14212168 -0.043954713 0.0019502207000000001 -0.023239864 -0.043992575 0.028251186 -0.037340248 -0.011156313000000001 0.0041186808 0.0062360765 0.22729099 0.37901905 0.40506216 0.19951882 0.29168416 -0.027799432000000002 -0.19868525 -0.17073811 -0.28446251
1.3710045 1.1873345 0.97515895 0.90662467 0.80631102 0.79696583 0.60693675 0.64409607 0.43638846 0.4173406 0.39732821 0.27774806 0.3563615 0.22353753 0.21887800000000002 0.21645073 0.22628126 0.051749369 0.057490234 0.14059423 0.0081304607 -0.013382516 0.042685178 0.062064605 -0.057979348 -0.05566184 0.062631029 -0.15101682 0.016422729 0.032865136 -0.14212168 -0.043954713 0.0019502207000000001 -0.023239864 -0.043992575 0.028251186 -0.037340248 -0.011156313000000001 0.0041186808 0.0062360765 0.22729099 0.37901905 0.40506216 0.19951882 0.29168416 -0.027799432000000002 -0.19868525 -0.17073811 -0.28446251 -0.15061437
1.1873345 0.97515895 0.90662467 0.80631102 0.79696583 0.60693675 0.64409607 0.43638846 0.4173406 0.39732821 0.27774806 0.3563615 0.22353753 0.21887800000000002 0.21645073 0.22628126 0.051749369 0.057490234 0.14059423 0.0081304607 -0.013382516 0.042685178 0.062064605 -0.057979348 -0.05566184 0.062631029 -0.15101682 0.016422729 0.032865136 -0.14212168 -0.043954713 0.0019502207000000001 -0.023239864 -0.043992575 0.028251186 -0.037340248 -0.011156313000000001 0.0041186808 0.0062360765 0.22729099 0.37901905 0.40506216 0.19951882 0.29168416 -0.027799432000000002 -0.19868525 -0.17073811 -0.28446251 -0.15061437 -0.26200415
0.97515895 0.90662467 0.80631102 0.79696583 0.60693675 0.64409607 0.43638846 0.4173406 0.39732821 0.27774806 0.3563615 0.22353753 0.21887800000000002 0.21645073 0.22628126 0.051749369 0.057490234 0.14059423 0.0081304607 -0.013382516 0.042685178 0.062064605 -0.057979348 -0.05566184 0.062631029 -0.15101682 0.016422729 0.032865136 -0.14212168 -0.043954713 0.0019502207000000001 -0.023239864 -0.043992575 0.028251186 -0.037340248 -0.011156313000000001 0.0041186808 0.0062360765 0.22729099 0.37901905 0.40506216 0.19951882 0.29168416 -0.027799432000000002 -0.19868525 -0.17073811 -0.28446251 -0.15061437 -0.26200415 -0.22242406
0.90662467 0.80631102 0.79696583 0.60693675 0.64409607 0.43638846 0.4173406 0.39732821 0.27774806 0.3563615 0.22353753 0.21887800000000002 0.21645073 0.22628126 0.051749369 0.057490234 0.14059423 0.0081304607 -0.013382516 0.042685178 0.062064605 -0.057979348 -0.05566184 0.062631029 -0.15101682 0.016422729 0.032865136 -0.14212168 -0.043954713 0.0019502207000000001 -0.023239864 -0.043992575 0.028251186 -0.037340248 -0.011156313000000001 0.0041186808 0.0062360765 0.22729099 0.37901905 0.40506216 0.19951882 0.29168416 -0.027799432000000002 -0.19868525 -0.17073811 -0.28446251 -0.15061437 -0.26200415 -0.22242406 -0.27178308
0.80631102 0.79696583 0.60693675 0.64409607 0.43638846 0.4173406 0.39732821 0.27774806 0.3563615 0.22353753 0.21887800000000002 0.21645073 0.22628126 0.051749369 0.057490234 0.14059423 0.0081304607 -0.013382516 0.042685178 0.062064605 -0.057979348 -0.05566184 0.062631029 -0.15101682 0.016422729 0.032865136 -0.14212168 -0.043954713 0.0019502207000000001 -0.023239864 -0.043992575 0.028251186 -0.037340248 -0.011156313000000001 0.0041186808 0.0062360765 0.22729099 0.37901905 0.40506216 0.19951882 0.29168416 -0.027799432000000002 -0.19868525 -0.17073811 -0.28446251 -0.15061437 -0.26200415 -0.22242406 -0.27178308 -0.065167955
0.79696583 0.60693675 0.64409607 0.43638846 0.4173406 0.39732821 0.27774806 0.3563615 0.22353753 0.21887800000000002 0.21645073 0.22628126 0.051749369 0.057490234 0.14059423 0.0081304607 -0.013382516 0.042685178 0.062064605 -0.057979348 -0.05566184 0.062631029 -0.15101682 0.016422729 0.032865136 -0.14212168 -0.043954713 0.0019502207000000001 -0.023239864 -0.043992575 0.028251186 -0.037340248 -0.011156313000000001 0.0041186808 0.0062360765 0.22729099 0.37901905 0.40506216 0.19951882 0.29168416 -0.027799432000000002 -0.19868525 -0.17073811 -0.28446251 -0.15061437 -0.26200415 -0.22242406 -0.27178308 -0.065167955 -0.15399404
0.60693675 0.64409607 0.43638846 0.4173406 0.39732821 0.27774806 0.3563615 0.22353753 0.21887800000000002 0.21645073 0.22628126 0.051749369 0.057490234 0.14059423 0.0081304607 -0.013382516 0.042685178 0.062064605 -0.057979348 -0.05566184 0.062631029 -0.15101682 0.016422729 0.032865136 -0.14212168 -0.043954713 0.0019502207000000001 -0.023239864 -0.043992575 0.028251186 -0.037340248 -0.011156313000000001 0.0041186808 0.0062360765 0.22729099 0.37901905 0.40506216 0.19951882 0.29168416 -0.027799432000000002 -0.19868525 -0.17073811 -0.28446251 -0.15061437 -0.26200415 -0.22242406 -0.27178308 -0.065167955 -0.15399404 -0.099545425
0.64409607 0.43638846 0.4173406 0.39732821 0.27774806 0.3563615 0.22353753 0.21887800000000002 0.21645073 0.22628126 0.051749369 0.057490234 0.14059423 0.0081304607 -0.013382516 0.042685178 0.062064605 -0.057979348 -0.05566184 0.062631029 -0.15101682 0.016422729 0.032865136 -0.14212168 -0.043954713 0.0019502207000000001 -0.023239864 -0.043992575 0.028251186 -0.037340248 -0.011156313000000001 0.0041186808 0.0062360765 0.22729099 0.37901905 0.40506216 0.19951882 0.29168416 -0.027799432000000002 -0.19868525 -0.17073811 -0.28446251 -0.15061437 -0.26200415 -0.22242406 -0.27178308 -0.065167955 -0.15399404 -0.099545425 -0.072254718
0.43638846 0.4173406 0.39732821 0.27774806 0.3563615 0.22353753 0.21887800000000002 0.21645073 0.22628126 0.051749369 0.057490234 0.14059423 0.0081304607 -0.013382516 0.042685178 0.062064605 -0.057979348 -0.05566184 0.062631029 -0.15101682 0.016422729 0.032865136 -0.14212168 -0.043954713 0.0019502207000000001 -0.023239864 -0.043992575 0.028251186 -0.037340248 -0.011156313000000001 0.0041186808 0.0062360765 0.22729099 0.37901905 0.40506216 0.19951882 0.29168416 -0.027799432000000002 -0.19868525 -0.17073811 -0.28446251 -0.15061437 -0.26200415 -0.22242406 -0.27178308 -0.065167955 -0.15399404 -0.099545425 -0.072254718 0.015932976
