0.47527619 1.3431131 2.7848317000000002 2.8877707999999997 1.5500174 -0.40538954 -0.02436819 1.0565722 0.76472116 1.0003107 0.61892367 -0.26310215 -0.57270577 -0.68380925 -0.85528617 -0.87181822 -0.97463085 -1.0680316 -1.0048411 -1.1564903 -1.2206934 -1.3067336 -1.4448952 -1.4511083999999999 -1.6627040000000002 -1.7535886000000003 -1.75575 -1.9270272000000002 -2.0732827 -2.1304679 -2.1625923 -2.1702212000000003 -2.0143108 -1.7348827000000002 -1.4720145 -1.1195178999999997 -0.67855046 -0.24605327 0.17242743 0.48751637 0.72219379 0.87896307 0.85769667 0.89469716 0.93045816 0.74775761 0.67615078 0.71573034 0.69377634 0.65056269
1.3431131 2.7848317000000002 2.8877707999999997 1.5500174 -0.40538954 -0.02436819 1.0565722 0.76472116 1.0003107 0.61892367 -0.26310215 -0.57270577 -0.68380925 -0.85528617 -0.87181822 -0.97463085 -1.0680316 -1.0048411 -1.1564903 -1.2206934 -1.3067336 -1.4448952 -1.4511083999999999 -1.6627040000000002 -1.7535886000000003 -1.75575 -1.9270272000000002 -2.0732827 -2.1304679 -2.1625923 -2.1702212000000003 -2.0143108 -1.7348827000000002 -1.4720145 -1.1195178999999997 -0.67855046 -0.24605327 0.17242743 0.48751637 0.72219379 0.87896307 0.85769667 0.89469716 0.93045816 0.74775761 0.67615078 0.71573034 0.69377634 0.65056269 0.65600825
2.7848317000000002 2.8877707999999997 1.5500174 -0.40538954 -0.02436819 1.0565722 0.76472116 1.0003107 0.61892367 -0.26310215 -0.57270577 -0.68380925 -0.85528617 -0.87181822 -0.97463085 -1.0680316 -1.0048411 -1.1564903 -1.2206934 -1.3067336 -1.4448952 -1.4511083999999999 -1.6627040000000002 -1.7535886000000003 -1.75575 -1.9270272000000002 -2.0732827 -2.1304679 -2.1625923 -2.1702212000000003 -2.0143108 -1.7348827000000002 -1.4720145 -1.1195178999999997 -0.67855046 -0.24605327 0.17242743 0.48751637 0.72219379 0.87896307 0.85769667 0.89469716 0.93045816 0.74775761 0.67615078 0.71573034 0.69377634 0.65056269 0.65600825 0.69737415
2.8877707999999997 1.5500174 -0.40538954 -0.02436819 1.0565722 0.76472116 1.0003107 0.61892367 -0.26310215 -0.57270577 -0.68380925 -0.85528617 -0.87181822 -0.97463085 -1.0680316 -1.0048411 -1.1564903 -1.2206934 -1.3067336 -1.4448952 -1.4511083999999999 -1.6627040000000002 -1.7535886000000003 -1.75575 -1.9270272000000002 -2.0732827 -2.1304679 -2.1625923 -2.1702212000000003 -2.0143108 -1.7348827000000002 -1.4720145 -1.1195178999999997 -0.67855046 -0.24605327 0.17242743 0.48751637 0.72219379 0.87896307 0.85769667 0.89469716 0.93045816 0.74775761 0.67615078 0.71573034 0.69377634 0.65056269 0.65600825 0.69737415 0.72206868
1.5500174 -0.40538954 -0.02436819 1.0565722 0.76472116 1.0003107 0.61892367 -0.26310215 -0.57270577 -0.68380925 -0.85528617 -0.87181822 -0.97463085 -1.0680316 -1.0048411 -1.1564903 -1.2206934 -1.3067336 -1.4448952 -1.4511083999999999 -1.6627040000000002 -1.7535886000000003 -1.75575 -1.9270272000000002 -2.0732827 -2.1304679 -2.1625923 -2.1702212000000003 -2.0143108 -1.7348827000000002 -1.4720145 -1.1195178999999997 -0.67855046 -0.24605327 0.17242743 0.48751637 0.72219379 0.87896307 0.85769667 0.89469716 0.93045816 0.74775761 0.67615078 0.71573034 0.69377634 0.65056269 0.65600825 0.69737415 0.72206868 0.74480756
-0.40538954 -0.02436819 1.0565722 0.76472116 1.0003107 0.61892367 -0.26310215 -0.57270577 -0.68380925 -0.85528617 -0.87181822 -0.97463085 -1.0680316 -1.0048411 -1.1564903 -1.2206934 -1.3067336 -1.4448952 -1.4511083999999999 -1.6627040000000002 -1.7535886000000003 -1.75575 -1.9270272000000002 -2.0732827 -2.1304679 -2.1625923 -2.1702212000000003 -2.0143108 -1.7348827000000002 -1.4720145 -1.1195178999999997 -0.67855046 -0.24605327 0.17242743 0.48751637 0.72219379 0.87896307 0.85769667 0.89469716 0.93045816 0.74775761 0.67615078 0.71573034 0.69377634 0.65056269 0.65600825 0.69737415 0.72206868 0.74480756 0.6891006
-0.02436819 1.0565722 0.76472116 1.0003107 0.61892367 -0.26310215 -0.57270577 -0.68380925 -0.85528617 -0.87181822 -0.97463085 -1.0680316 -1.0048411 -1.1564903 -1.2206934 -1.3067336 -1.4448952 -1.4511083999999999 -1.6627040000000002 -1.7535886000000003 -1.75575 -1.9270272000000002 -2.0732827 -2.1304679 -2.1625923 -2.1702212000000003 -2.0143108 -1.7348827000000002 -1.4720145 -1.1195178999999997 -0.67855046 -0.24605327 0.17242743 0.48751637 0.72219379 0.87896307 0.85769667 0.89469716 0.93045816 0.74775761 0.67615078 0.71573034 0.69377634 0.65056269 0.65600825 0.69737415 0.72206868 0.74480756 0.6891006 0.68170334
1.0565722 0.76472116 1.0003107 0.61892367 -0.26310215 -0.57270577 -0.68380925 -0.85528617 -0.87181822 -0.97463085 -1.0680316 -1.0048411 -1.1564903 -1.2206934 -1.3067336 -1.4448952 -1.4511083999999999 -1.6627040000000002 -1.7535886000000003 -1.75575 -1.9270272000000002 -2.0732827 -2.1304679 -2.1625923 -2.1702212000000003 -2.0143108 -1.7348827000000002 -1.4720145 -1.1195178999999997 -0.67855046 -0.24605327 0.17242743 0.48751637 0.72219379 0.87896307 0.85769667 0.89469716 0.93045816 0.74775761 0.67615078 0.71573034 0.69377634 0.65056269 0.65600825 0.69737415 0.72206868 0.74480756 0.6891006 0.68170334 0.70529202
0.76472116 1.0003107 0.61892367 -0.26310215 -0.57270577 -0.68380925 -0.85528617 -0.87181822 -0.97463085 -1.0680316 -1.0048411 -1.1564903 -1.2206934 -1.3067336 -1.4448952 -1.4511083999999999 -1.6627040000000002 -1.7535886000000003 -1.75575 -1.9270272000000002 -2.0732827 -2.1304679 -2.1625923 -2.1702212000000003 -2.0143108 -1.7348827000000002 -1.4720145 -1.1195178999999997 -0.67855046 -0.24605327 0.17242743 0.48751637 0.72219379 0.87896307 0.85769667 0.89469716 0.93045816 0.74775761 0.67615078 0.71573034 0.69377634 0.65056269 0.65600825 0.69737415 0.72206868 0.74480756 0.6891006 0.68170334 0.70529202 0.67208974
1.0003107 0.61892367 -0.26310215 -0.57270577 -0.68380925 -0.85528617 -0.87181822 -0.97463085 -1.0680316 -1.0048411 -1.1564903 -1.2206934 -1.3067336 -1.4448952 -1.4511083999999999 -1.6627040000000002 -1.7535886000000003 -1.75575 -1.9270272000000002 -2.0732827 -2.1304679 -2.1625923 -2.1702212000000003 -2.0143108 -1.7348827000000002 -1.4720145 -1.1195178999999997 -0.67855046 -0.24605327 0.17242743 0.48751637 0.72219379 0.87896307 0.85769667 0.89469716 0.93045816 0.74775761 0.67615078 0.71573034 0.69377634 0.65056269 0.65600825 0.69737415 0.72206868 0.74480756 0.6891006 0.68170334 0.70529202 0.67208974 0.66611669
0.61892367 -0.26310215 -0.57270577 -0.68380925 -0.85528617 -0.87181822 -0.97463085 -1.0680316 -1.0048411 -1.1564903 -1.2206934 -1.3067336 -1.4448952 -1.4511083999999999 -1.6627040000000002 -1.7535886000000003 -1.75575 -1.9270272000000002 -2.0732827 -2.1304679 -2.1625923 -2.1702212000000003 -2.0143108 -1.7348827000000002 -1.4720145 -1.1195178999999997 -0.67855046 -0.24605327 0.17242743 0.48751637 0.72219379 0.87896307 0.85769667 0.89469716 0.93045816 0.74775761 0.67615078 0.71573034 0.69377634 0.65056269 0.65600825 0.69737415 0.72206868 0.74480756 0.6891006 0.68170334 0.70529202 0.67208974 0.66611669 0.60662528
-0.26310215 -0.57270577 -0.68380925 -0.85528617 -0.87181822 -0.97463085 -1.0680316 -1.0048411 -1.1564903 -1.2206934 -1.3067336 -1.4448952 -1.4511083999999999 -1.6627040000000002 -1.7535886000000003 -1.75575 -1.9270272000000002 -2.0732827 -2.1304679 -2.1625923 -2.1702212000000003 -2.0143108 -1.7348827000000002 -1.4720145 -1.1195178999999997 -0.67855046 -0.24605327 0.17242743 0.48751637 0.72219379 0.87896307 0.85769667 0.89469716 0.93045816 0.74775761 0.67615078 0.71573034 0.69377634 0.65056269 0.65600825 0.69737415 0.72206868 0.74480756 0.6891006 0.68170334 0.70529202 0.67208974 0.66611669 0.60662528 0.68661784
-0.57270577 -0.68380925 -0.85528617 -0.87181822 -0.97463085 -1.0680316 -1.0048411 -1.1564903 -1.2206934 -1.3067336 -1.4448952 -1.4511083999999999 -1.6627040000000002 -1.7535886000000003 -1.75575 -1.9270272000000002 -2.0732827 -2.1304679 -2.1625923 -2.1702212000000003 -2.0143108 -1.7348827000000002 -1.4720145 -1.1195178999999997 -0.67855046 -0.24605327 0.17242743 0.48751637 0.72219379 0.87896307 0.85769667 0.89469716 0.93045816 0.74775761 0.67615078 0.71573034 0.69377634 0.65056269 0.65600825 0.69737415 0.72206868 0.74480756 0.6891006 0.68170334 0.70529202 0.67208974 0.66611669 0.60662528 0.68661784 0.53906457
-0.68380925 -0.85528617 -0.87181822 -0.97463085 -1.0680316 -1.0048411 -1.1564903 -1.2206934 -1.3067336 -1.4448952 -1.4511083999999999 -1.6627040000000002 -1.7535886000000003 -1.75575 -1.9270272000000002 -2.0732827 -2.1304679 -2.1625923 -2.1702212000000003 -2.0143108 -1.7348827000000002 -1.4720145 -1.1195178999999997 -0.67855046 -0.24605327 0.17242743 0.48751637 0.72219379 0.87896307 0.85769667 0.89469716 0.93045816 0.74775761 0.67615078 0.71573034 0.69377634 0.65056269 0.65600825 0.69737415 0.72206868 0.74480756 0.6891006 0.68170334 0.70529202 0.67208974 0.66611669 0.60662528 0.68661784 0.53906457 0.47444208
-0.85528617 -0.87181822 -0.97463085 -1.0680316 -1.0048411 -1.1564903 -1.2206934 -1.3067336 -1.4448952 -1.4511083999999999 -1.6627040000000002 -1.7535886000000003 -1.75575 -1.9270272000000002 -2.0732827 -2.1304679 -2.1625923 -2.1702212000000003 -2.0143108 -1.7348827000000002 -1.4720145 -1.1195178999999997 -0.67855046 -0.24605327 0.17242743 0.48751637 0.72219379 0.87896307 0.85769667 0.89469716 0.93045816 0.74775761 0.67615078 0.71573034 0.69377634 0.65056269 0.65600825 0.69737415 0.72206868 0.74480756 0.6891006 0.68170334 0.70529202 0.67208974 0.66611669 0.60662528 0.68661784 0.53906457 0.47444208 0.55984467
-0.87181822 -0.97463085 -1.0680316 -1.0048411 -1.1564903 -1.2206934 -1.3067336 -1.4448952 -1.4511083999999999 -1.6627040000000002 -1.7535886000000003 -1.75575 -1.9270272000000002 -2.0732827 -2.1304679 -2.1625923 -2.1702212000000003 -2.0143108 -1.7348827000000002 -1.4720145 -1.1195178999999997 -0.67855046 -0.24605327 0.17242743 0.48751637 0.72219379 0.87896307 0.85769667 0.89469716 0.93045816 0.74775761 0.67615078 0.71573034 0.69377634 0.65056269 0.65600825 0.69737415 0.72206868 0.74480756 0.6891006 0.68170334 0.70529202 0.67208974 0.66611669 0.60662528 0.68661784 0.53906457 0.47444208 0.55984467 0.41716552
-0.97463085 -1.0680316 -1.0048411 -1.1564903 -1.2206934 -1.3067336 -1.4448952 -1.4511083999999999 -1.6627040000000002 -1.7535886000000003 -1.75575 -1.9270272000000002 -2.0732827 -2.1304679 -2.1625923 -2.1702212000000003 -2.0143108 -1.7348827000000002 -1.4720145 -1.1195178999999997 -0.67855046 -0.24605327 0.17242743 0.48751637 0.72219379 0.87896307 0.85769667 0.89469716 0.93045816 0.74775761 0.67615078 0.71573034 0.69377634 0.65056269 0.65600825 0.69737415 0.72206868 0.74480756 0.6891006 0.68170334 0.70529202 0.67208974 0.66611669 0.60662528 0.68661784 0.53906457 0.47444208 0.55984467 0.41716552 0.43372555
-1.0680316 -1.0048411 -1.1564903 -1.2206934 -1.3067336 -1.4448952 -1.4511083999999999 -1.6627040000000002 -1.7535886000000003 -1.75575 -1.9270272000000002 -2.0732827 -2.1304679 -2.1625923 -2.1702212000000003 -2.0143108 -1.7348827000000002 -1.4720145 -1.1195178999999997 -0.67855046 -0.24605327 0.17242743 0.48751637 0.72219379 0.87896307 0.85769667 0.89469716 0.93045816 0.74775761 0.67615078 0.71573034 0.69377634 0.65056269 0.65600825 0.69737415 0.72206868 0.74480756 0.6891006 0.68170334 0.70529202 0.67208974 0.66611669 0.60662528 0.68661784 0.53906457 0.47444208 0.55984467 0.41716552 0.43372555 0.4007906
-1.0048411 -1.1564903 -1.2206934 -1.3067336 -1.4448952 -1.4511083999999999 -1.6627040000000002 -1.7535886000000003 -1.75575 -1.9270272000000002 -2.0732827 -2.1304679 -2.1625923 -2.1702212000000003 -2.0143108 -1.7348827000000002 -1.4720145 -1.1195178999999997 -0.67855046 -0.24605327 0.17242743 0.48751637 0.72219379 0.87896307 0.85769667 0.89469716 0.93045816 0.74775761 0.67615078 0.71573034 0.69377634 0.65056269 0.65600825 0.69737415 0.72206868 0.74480756 0.6891006 0.68170334 0.70529202 0.67208974 0.66611669 0.60662528 0.68661784 0.53906457 0.47444208 0.55984467 0.41716552 0.43372555 0.4007906 0.32196062
-1.1564903 -1.2206934 -1.3067336 -1.4448952 -1.4511083999999999 -1.6627040000000002 -1.7535886000000003 -1.75575 -1.9270272000000002 -2.0732827 -2.1304679 -2.1625923 -2.1702212000000003 -2.0143108 -1.7348827000000002 -1.4720145 -1.1195178999999997 -0.67855046 -0.24605327 0.17242743 0.48751637 0.72219379 0.87896307 0.85769667 0.89469716 0.93045816 0.74775761 0.67615078 0.71573034 0.69377634 0.65056269 0.65600825 0.69737415 0.72206868 0.74480756 0.6891006 0.68170334 0.70529202 0.67208974 0.66611669 0.60662528 0.68661784 0.53906457 0.47444208 0.55984467 0.41716552 0.43372555 0.4007906 0.32196062 0.34978547
-1.2206934 -1.3067336 -1.4448952 -1.4511083999999999 -1.6627040000000002 -1.7535886000000003 -1.75575 -1.9270272000000002 -2.0732827 -2.1304679 -2.1625923 -2.1702212000000003 -2.0143108 -1.7348827000000002 -1.4720145 -1.1195178999999997 -0.67855046 -0.24605327 0.17242743 0.48751637 0.72219379 0.87896307 0.85769667 0.89469716 0.93045816 0.74775761 0.67615078 0.71573034 0.69377634 0.65056269 0.65600825 0.69737415 0.72206868 0.74480756 0.6891006 0.68170334 0.70529202 0.67208974 0.66611669 0.60662528 0.68661784 0.53906457 0.47444208 0.55984467 0.41716552 0.43372555 0.4007906 0.32196062 0.34978547 0.33543097
-1.3067336 -1.4448952 -1.4511083999999999 -1.6627040000000002 -1.7535886000000003 -1.75575 -1.9270272000000002 -2.0732827 -2.1304679 -2.1625923 -2.1702212000000003 -2.0143108 -1.7348827000000002 -1.4720145 -1.1195178999999997 -0.67855046 -0.24605327 0.17242743 0.48751637 0.72219379 0.87896307 0.85769667 0.89469716 0.93045816 0.74775761 0.67615078 0.71573034 0.69377634 0.65056269 0.65600825 0.69737415 0.72206868 0.74480756 0.6891006 0.68170334 0.70529202 0.67208974 0.66611669 0.60662528 0.68661784 0.53906457 0.47444208 0.55984467 0.41716552 0.43372555 0.4007906 0.32196062 0.34978547 0.33543097 0.22770578
-1.4448952 -1.4511083999999999 -1.6627040000000002 -1.7535886000000003 -1.75575 -1.9270272000000002 -2.0732827 -2.1304679 -2.1625923 -2.1702212000000003 -2.0143108 -1.7348827000000002 -1.4720145 -1.1195178999999997 -0.67855046 -0.24605327 0.17242743 0.48751637 0.72219379 0.87896307 0.85769667 0.89469716 0.93045816 0.74775761 0.67615078 0.71573034 0.69377634 0.65056269 0.65600825 0.69737415 0.72206868 0.74480756 0.6891006 0.68170334 0.70529202 0.67208974 0.66611669 0.60662528 0.68661784 0.53906457 0.47444208 0.55984467 0.41716552 0.43372555 0.4007906 0.32196062 0.34978547 0.33543097 0.22770578 0.19367019
-1.4511083999999999 -1.6627040000000002 -1.7535886000000003 -1.75575 -1.9270272000000002 -2.0732827 -2.1304679 -2.1625923 -2.1702212000000003 -2.0143108 -1.7348827000000002 -1.4720145 -1.1195178999999997 -0.67855046 -0.24605327 0.17242743 0.48751637 0.72219379 0.87896307 0.85769667 0.89469716 0.93045816 0.74775761 0.67615078 0.71573034 0.69377634 0.65056269 0.65600825 0.69737415 0.72206868 0.74480756 0.6891006 0.68170334 0.70529202 0.67208974 0.66611669 0.60662528 0.68661784 0.53906457 0.47444208 0.55984467 0.41716552 0.43372555 0.4007906 0.32196062 0.34978547 0.33543097 0.22770578 0.19367019 0.22742227
-1.6627040000000002 -1.7535886000000003 -1.75575 -1.9270272000000002 -2.0732827 -2.1304679 -2.1625923 -2.1702212000000003 -2.0143108 -1.7348827000000002 -1.4720145 -1.1195178999999997 -0.67855046 -0.24605327 0.17242743 0.48751637 0.72219379 0.87896307 0.85769667 0.89469716 0.93045816 0.74775761 0.67615078 0.71573034 0.69377634 0.65056269 0.65600825 0.69737415 0.72206868 0.74480756 0.6891006 0.68170334 0.70529202 0.67208974 0.66611669 0.60662528 0.68661784 0.53906457 0.47444208 0.55984467 0.41716552 0.43372555 0.4007906 0.32196062 0.34978547 0.33543097 0.22770578 0.19367019 0.22742227 0.17551903
-1.7535886000000003 -1.75575 -1.9270272000000002 -2.0732827 -2.1304679 -2.1625923 -2.1702212000000003 -2.0143108 -1.7348827000000002 -1.4720145 -1.1195178999999997 -0.67855046 -0.24605327 0.17242743 0.48751637 0.72219379 0.87896307 0.85769667 0.89469716 0.93045816 0.74775761 0.67615078 0.71573034 0.69377634 0.65056269 0.65600825 0.69737415 0.72206868 0.74480756 0.6891006 0.68170334 0.70529202 0.67208974 0.66611669 0.60662528 0.68661784 0.53906457 0.47444208 0.55984467 0.41716552 0.43372555 0.4007906 0.32196062 0.34978547 0.33543097 0.22770578 0.19367019 0.22742227 0.17551903 0.34750821
-1.75575 -1.9270272000000002 -2.0732827 -2.1304679 -2.1625923 -2.1702212000000003 -2.0143108 -1.7348827000000002 -1.4720145 -1.1195178999999997 -0.67855046 -0.24605327 0.17242743 0.48751637 0.72219379 0.87896307 0.85769667 0.89469716 0.93045816 0.74775761 0.67615078 0.71573034 0.69377634 0.65056269 0.65600825 0.69737415 0.72206868 0.74480756 0.6891006 0.68170334 0.70529202 0.67208974 0.66611669 0.60662528 0.68661784 0.53906457 0.47444208 0.55984467 0.41716552 0.43372555 0.4007906 0.32196062 0.34978547 0.33543097 0.22770578 0.19367019 0.22742227 0.17551903 0.34750821 0.61978171
-1.9270272000000002 -2.0732827 -2.1304679 -2.1625923 -2.1702212000000003 -2.0143108 -1.7348827000000002 -1.4720145 -1.1195178999999997 -0.67855046 -0.24605327 0.17242743 0.48751637 0.72219379 0.87896307 0.85769667 0.89469716 0.93045816 0.74775761 0.67615078 0.71573034 0.69377634 0.65056269 0.65600825 0.69737415 0.72206868 0.74480756 0.6891006 0.68170334 0.70529202 0.67208974 0.66611669 0.60662528 0.68661784 0.53906457 0.47444208 0.55984467 0.41716552 0.43372555 0.4007906 0.32196062 0.34978547 0.33543097 0.22770578 0.19367019 0.22742227 0.17551903 0.34750821 0.61978171 0.67846578
-2.0732827 -2.1304679 -2.1625923 -2.1702212000000003 -2.0143108 -1.7348827000000002 -1.4720145 -1.1195178999999997 -0.67855046 -0.24605327 0.17242743 0.48751637 0.72219379 0.87896307 0.85769667 0.89469716 0.93045816 0.74775761 0.67615078 0.71573034 0.69377634 0.65056269 0.65600825 0.69737415 0.72206868 0.74480756 0.6891006 0.68170334 0.70529202 0.67208974 0.66611669 0.60662528 0.68661784 0.53906457 0.47444208 0.55984467 0.41716552 0.43372555 0.4007906 0.32196062 0.34978547 0.33543097 0.22770578 0.19367019 0.22742227 0.17551903 0.34750821 0.61978171 0.67846578 0.56769143
-2.1304679 -2.1625923 -2.1702212000000003 -2.0143108 -1.7348827000000002 -1.4720145 -1.1195178999999997 -0.67855046 -0.24605327 0.17242743 0.48751637 0.72219379 0.87896307 0.85769667 0.89469716 0.93045816 0.74775761 0.67615078 0.71573034 0.69377634 0.65056269 0.65600825 0.69737415 0.72206868 0.74480756 0.6891006 0.68170334 0.70529202 0.67208974 0.66611669 0.60662528 0.68661784 0.53906457 0.47444208 0.55984467 0.41716552 0.43372555 0.4007906 0.32196062 0.34978547 0.33543097 0.22770578 0.19367019 0.22742227 0.17551903 0.34750821 0.61978171 0.67846578 0.56769143 0.45223543
-2.1625923 -2.1702212000000003 -2.0143108 -1.7348827000000002 -1.4720145 -1.1195178999999997 -0.67855046 -0.24605327 0.17242743 0.48751637 0.72219379 0.87896307 0.85769667 0.89469716 0.93045816 0.74775761 0.67615078 0.71573034 0.69377634 0.65056269 0.65600825 0.69737415 0.72206868 0.74480756 0.6891006 0.68170334 0.70529202 0.67208974 0.66611669 0.60662528 0.68661784 0.53906457 0.47444208 0.55984467 0.41716552 0.43372555 0.4007906 0.32196062 0.34978547 0.33543097 0.22770578 0.19367019 0.22742227 0.17551903 0.34750821 0.61978171 0.67846578 0.56769143 0.45223543 0.3966564
-2.1702212000000003 -2.0143108 -1.7348827000000002 -1.4720145 -1.1195178999999997 -0.67855046 -0.24605327 0.17242743 0.48751637 0.72219379 0.87896307 0.85769667 0.89469716 0.93045816 0.74775761 0.67615078 0.71573034 0.69377634 0.65056269 0.65600825 0.69737415 0.72206868 0.74480756 0.6891006 0.68170334 0.70529202 0.67208974 0.66611669 0.60662528 0.68661784 0.53906457 0.47444208 0.55984467 0.41716552 0.43372555 0.4007906 0.32196062 0.34978547 0.33543097 0.22770578 0.19367019 0.22742227 0.17551903 0.34750821 0.61978171 0.67846578 0.56769143 0.45223543 0.3966564 0.21912562
-2.0143108 -1.7348827000000002 -1.4720145 -1.1195178999999997 -0.67855046 -0.24605327 0.17242743 0.48751637 0.72219379 0.87896307 0.85769667 0.89469716 0.93045816 0.74775761 0.67615078 0.71573034 0.69377634 0.65056269 0.65600825 0.69737415 0.72206868 0.74480756 0.6891006 0.68170334 0.70529202 0.67208974 0.66611669 0.60662528 0.68661784 0.53906457 0.47444208 0.55984467 0.41716552 0.43372555 0.4007906 0.32196062 0.34978547 0.33543097 0.22770578 0.19367019 0.22742227 0.17551903 0.34750821 0.61978171 0.67846578 0.56769143 0.45223543 0.3966564 0.21912562 0.042417515999999995
-1.7348827000000002 -1.4720145 -1.1195178999999997 -0.67855046 -0.24605327 0.17242743 0.48751637 0.72219379 0.87896307 0.85769667 0.89469716 0.93045816 0.74775761 0.67615078 0.71573034 0.69377634 0.65056269 0.65600825 0.69737415 0.72206868 0.74480756 0.6891006 0.68170334 0.70529202 0.67208974 0.66611669 0.60662528 0.68661784 0.53906457 0.47444208 0.55984467 0.41716552 0.43372555 0.4007906 0.32196062 0.34978547 0.33543097 0.22770578 0.19367019 0.22742227 0.17551903 0.34750821 0.61978171 0.67846578 0.56769143 0.45223543 0.3966564 0.21912562 0.042417515999999995 0.0088995724
-1.4720145 -1.1195178999999997 -0.67855046 -0.24605327 0.17242743 0.48751637 0.72219379 0.87896307 0.85769667 0.89469716 0.93045816 0.74775761 0.67615078 0.71573034 0.69377634 0.65056269 0.65600825 0.69737415 0.72206868 0.74480756 0.6891006 0.68170334 0.70529202 0.67208974 0.66611669 0.60662528 0.68661784 0.53906457 0.47444208 0.55984467 0.41716552 0.43372555 0.4007906 0.32196062 0.34978547 0.33543097 0.22770578 0.19367019 0.22742227 0.17551903 0.34750821 0.61978171 0.67846578 0.56769143 0.45223543 0.3966564 0.21912562 0.042417515999999995 0.0088995724 0.03596579
-1.1195178999999997 -0.67855046 -0.24605327 0.17242743 0.48751637 0.72219379 0.87896307 0.85769667 0.89469716 0.93045816 0.74775761 0.67615078 0.71573034 0.69377634 0.65056269 0.65600825 0.69737415 0.72206868 0.74480756 0.6891006 0.68170334 0.70529202 0.67208974 0.66611669 0.60662528 0.68661784 0.53906457 0.47444208 0.55984467 0.41716552 0.43372555 0.4007906 0.32196062 0.34978547 0.33543097 0.22770578 0.19367019 0.22742227 0.17551903 0.34750821 0.61978171 0.67846578 0.56769143 0.45223543 0.3966564 0.21912562 0.042417515999999995 0.0088995724 0.03596579 -0.062248542000000004
-0.67855046 -0.24605327 0.17242743 0.48751637 0.72219379 0.87896307 0.85769667 0.89469716 0.93045816 0.74775761 0.67615078 0.71573034 0.69377634 0.65056269 0.65600825 0.69737415 0.72206868 0.74480756 0.6891006 0.68170334 0.70529202 0.67208974 0.66611669 0.60662528 0.68661784 0.53906457 0.47444208 0.55984467 0.41716552 0.43372555 0.4007906 0.32196062 0.34978547 0.33543097 0.22770578 0.19367019 0.22742227 0.17551903 0.34750821 0.61978171 0.67846578 0.56769143 0.45223543 0.3966564 0.21912562 0.042417515999999995 0.0088995724 0.03596579 -0.062248542000000004 -0.09953184400000001
-0.24605327 0.17242743 0.48751637 0.72219379 0.87896307 0.85769667 0.89469716 0.93045816 0.74775761 0.67615078 0.71573034 0.69377634 0.65056269 0.65600825 0.69737415 0.72206868 0.74480756 0.6891006 0.68170334 0.70529202 0.67208974 0.66611669 0.60662528 0.68661784 0.53906457 0.47444208 0.55984467 0.41716552 0.43372555 0.4007906 0.32196062 0.34978547 0.33543097 0.22770578 0.19367019 0.22742227 0.17551903 0.34750821 0.61978171 0.67846578 0.56769143 0.45223543 0.3966564 0.21912562 0.042417515999999995 0.0088995724 0.03596579 -0.062248542000000004 -0.09953184400000001 0.04216042
0.17242743 0.48751637 0.72219379 0.87896307 0.85769667 0.89469716 0.93045816 0.74775761 0.67615078 0.71573034 0.69377634 0.65056269 0.65600825 0.69737415 0.72206868 0.74480756 0.6891006 0.68170334 0.70529202 0.67208974 0.66611669 0.60662528 0.68661784 0.53906457 0.47444208 0.55984467 0.41716552 0.43372555 0.4007906 0.32196062 0.34978547 0.33543097 0.22770578 0.19367019 0.22742227 0.17551903 0.34750821 0.61978171 0.67846578 0.56769143 0.45223543 0.3966564 0.21912562 0.042417515999999995 0.0088995724 0.03596579 -0.062248542000000004 -0.09953184400000001 0.04216042 -0.051857130999999994
0.48751637 0.72219379 0.87896307 0.85769667 0.89469716 0.93045816 0.74775761 0.67615078 0.71573034 0.69377634 0.65056269 0.65600825 0.69737415 0.72206868 0.74480756 0.6891006 0.68170334 0.70529202 0.67208974 0.66611669 0.60662528 0.68661784 0.53906457 0.47444208 0.55984467 0.41716552 0.43372555 0.4007906 0.32196062 0.34978547 0.33543097 0.22770578 0.19367019 0.22742227 0.17551903 0.34750821 0.61978171 0.67846578 0.56769143 0.45223543 0.3966564 0.21912562 0.042417515999999995 0.0088995724 0.03596579 -0.062248542000000004 -0.09953184400000001 0.04216042 -0.051857130999999994 -0.067828242
0.72219379 0.87896307 0.85769667 0.89469716 0.93045816 0.74775761 0.67615078 0.71573034 0.69377634 0.65056269 0.65600825 0.69737415 0.72206868 0.74480756 0.6891006 0.68170334 0.70529202 0.67208974 0.66611669 0.60662528 0.68661784 0.53906457 0.47444208 0.55984467 0.41716552 0.43372555 0.4007906 0.32196062 0.34978547 0.33543097 0.22770578 0.19367019 0.22742227 0.17551903 0.34750821 0.61978171 0.67846578 0.56769143 0.45223543 0.3966564 0.21912562 0.042417515999999995 0.0088995724 0.03596579 -0.062248542000000004 -0.09953184400000001 0.04216042 -0.051857130999999994 -0.067828242 0.010169754
0.87896307 0.85769667 0.89469716 0.93045816 0.74775761 0.67615078 0.71573034 0.69377634 0.65056269 0.65600825 0.69737415 0.72206868 0.74480756 0.6891006 0.68170334 0.70529202 0.67208974 0.66611669 0.60662528 0.68661784 0.53906457 0.47444208 0.55984467 0.41716552 0.43372555 0.4007906 0.32196062 0.34978547 0.33543097 0.22770578 0.19367019 0.22742227 0.17551903 0.34750821 0.61978171 0.67846578 0.56769143 0.45223543 0.3966564 0.21912562 0.042417515999999995 0.0088995724 0.03596579 -0.062248542000000004 -0.09953184400000001 0.04216042 -0.051857130999999994 -0.067828242 0.010169754 -0.019263554
0.85769667 0.89469716 0.93045816 0.74775761 0.67615078 0.71573034 0.69377634 0.65056269 0.65600825 0.69737415 0.72206868 0.74480756 0.6891006 0.68170334 0.70529202 0.67208974 0.66611669 0.60662528 0.68661784 0.53906457 0.47444208 0.55984467 0.41716552 0.43372555 0.4007906 0.32196062 0.34978547 0.33543097 0.22770578 0.19367019 0.22742227 0.17551903 0.34750821 0.61978171 0.67846578 0.56769143 0.45223543 0.3966564 0.21912562 0.042417515999999995 0.0088995724 0.03596579 -0.062248542000000004 -0.09953184400000001 0.04216042 -0.051857130999999994 -0.067828242 0.010169754 -0.019263554 -0.057951543
0.89469716 0.93045816 0.74775761 0.67615078 0.71573034 0.69377634 0.65056269 0.65600825 0.69737415 0.72206868 0.74480756 0.6891006 0.68170334 0.70529202 0.67208974 0.66611669 0.60662528 0.68661784 0.53906457 0.47444208 0.55984467 0.41716552 0.43372555 0.4007906 0.32196062 0.34978547 0.33543097 0.22770578 0.19367019 0.22742227 0.17551903 0.34750821 0.61978171 0.67846578 0.56769143 0.45223543 0.3966564 0.21912562 0.042417515999999995 0.0088995724 0.03596579 -0.062248542000000004 -0.09953184400000001 0.04216042 -0.051857130999999994 -0.067828242 0.010169754 -0.019263554 -0.057951543 -0.077762082
0.93045816 0.74775761 0.67615078 0.71573034 0.69377634 0.65056269 0.65600825 0.69737415 0.72206868 0.74480756 0.6891006 0.68170334 0.70529202 0.67208974 0.66611669 0.60662528 0.68661784 0.53906457 0.47444208 0.55984467 0.41716552 0.43372555 0.4007906 0.32196062 0.34978547 0.33543097 0.22770578 0.19367019 0.22742227 0.17551903 0.34750821 0.61978171 0.67846578 0.56769143 0.45223543 0.3966564 0.21912562 0.042417515999999995 0.0088995724 0.03596579 -0.062248542000000004 -0.09953184400000001 0.04216042 -0.051857130999999994 -0.067828242 0.010169754 -0.019263554 -0.057951543 -0.077762082 0.07563837
0.74775761 0.67615078 0.71573034 0.69377634 0.65056269 0.65600825 0.69737415 0.72206868 0.74480756 0.6891006 0.68170334 0.70529202 0.67208974 0.66611669 0.60662528 0.68661784 0.53906457 0.47444208 0.55984467 0.41716552 0.43372555 0.4007906 0.32196062 0.34978547 0.33543097 0.22770578 0.19367019 0.22742227 0.17551903 0.34750821 0.61978171 0.67846578 0.56769143 0.45223543 0.3966564 0.21912562 0.042417515999999995 0.0088995724 0.03596579 -0.062248542000000004 -0.09953184400000001 0.04216042 -0.051857130999999994 -0.067828242 0.010169754 -0.019263554 -0.057951543 -0.077762082 0.07563837 0.080578491
0.67615078 0.71573034 0.69377634 0.65056269 0.65600825 0.69737415 0.72206868 0.74480756 0.6891006 0.68170334 0.70529202 0.67208974 0.66611669 0.60662528 0.68661784 0.53906457 0.47444208 0.55984467 0.41716552 0.43372555 0.4007906 0.32196062 0.34978547 0.33543097 0.22770578 0.19367019 0.22742227 0.17551903 0.34750821 0.61978171 0.67846578 0.56769143 0.45223543 0.3966564 0.21912562 0.042417515999999995 0.0088995724 0.03596579 -0.062248542000000004 -0.09953184400000001 0.04216042 -0.051857130999999994 -0.067828242 0.010169754 -0.019263554 -0.057951543 -0.077762082 0.07563837 0.080578491 -0.029783082000000002
