0.6692266 0.64016336 0.33815791 0.28531081 -0.13126681 -0.28827394 -0.33789631 -0.77754625 -0.72411581 -0.70891127 -0.90083177 -0.92681631 -1.206166 -1.2043277000000001 -1.2900816000000002 -1.4926257 -1.4695423 -1.6202575000000001 -1.9641802 -2.1405369999999997 -2.2355785 -2.1912347999999997 -2.4190612000000002 -2.3833501 -2.3352814 -2.4091296000000004 -1.7280793999999997 -1.508118 -1.1367001 -0.59679096 -0.42528446 0.049137167 0.33933537 0.5951183000000001 0.81456139 0.51347237 0.7409389000000001 0.82628155 0.52163904 0.69541518 0.64173935 0.5767863 0.58165316 0.6270131999999999 0.64005163 0.63360328 0.45195683 0.75507765 0.64087958 0.5253825
0.64016336 0.33815791 0.28531081 -0.13126681 -0.28827394 -0.33789631 -0.77754625 -0.72411581 -0.70891127 -0.90083177 -0.92681631 -1.206166 -1.2043277000000001 -1.2900816000000002 -1.4926257 -1.4695423 -1.6202575000000001 -1.9641802 -2.1405369999999997 -2.2355785 -2.1912347999999997 -2.4190612000000002 -2.3833501 -2.3352814 -2.4091296000000004 -1.7280793999999997 -1.508118 -1.1367001 -0.59679096 -0.42528446 0.049137167 0.33933537 0.5951183000000001 0.81456139 0.51347237 0.7409389000000001 0.82628155 0.52163904 0.69541518 0.64173935 0.5767863 0.58165316 0.6270131999999999 0.64005163 0.63360328 0.45195683 0.75507765 0.64087958 0.5253825 0.66578504
0.33815791 0.28531081 -0.13126681 -0.28827394 -0.33789631 -0.77754625 -0.72411581 -0.70891127 -0.90083177 -0.92681631 -1.206166 -1.2043277000000001 -1.2900816000000002 -1.4926257 -1.4695423 -1.6202575000000001 -1.9641802 -2.1405369999999997 -2.2355785 -2.1912347999999997 -2.4190612000000002 -2.3833501 -2.3352814 -2.4091296000000004 -1.7280793999999997 -1.508118 -1.1367001 -0.59679096 -0.42528446 0.049137167 0.33933537 0.5951183000000001 0.81456139 0.51347237 0.7409389000000001 0.82628155 0.52163904 0.69541518 0.64173935 0.5767863 0.58165316 0.6270131999999999 0.64005163 0.63360328 0.45195683 0.75507765 0.64087958 0.5253825 0.66578504 0.42517263
0.28531081 -0.13126681 -0.28827394 -0.33789631 -0.77754625 -0.72411581 -0.70891127 -0.90083177 -0.92681631 -1.206166 -1.2043277000000001 -1.2900816000000002 -1.4926257 -1.4695423 -1.6202575000000001 -1.9641802 -2.1405369999999997 -2.2355785 -2.1912347999999997 -2.4190612000000002 -2.3833501 -2.3352814 -2.4091296000000004 -1.7280793999999997 -1.508118 -1.1367001 -0.59679096 -0.42528446 0.049137167 0.33933537 0.5951183000000001 0.81456139 0.51347237 0.7409389000000001 0.82628155 0.52163904 0.69541518 0.64173935 0.5767863 0.58165316 0.6270131999999999 0.64005163 0.63360328 0.45195683 0.75507765 0.64087958 0.5253825 0.66578504 0.42517263 0.56961246
-0.13126681 -0.28827394 -0.33789631 -0.77754625 -0.72411581 -0.70891127 -0.90083177 -0.92681631 -1.206166 -1.2043277000000001 -1.2900816000000002 -1.4926257 -1.4695423 -1.6202575000000001 -1.9641802 -2.1405369999999997 -2.2355785 -2.1912347999999997 -2.4190612000000002 -2.3833501 -2.3352814 -2.4091296000000004 -1.7280793999999997 -1.508118 -1.1367001 -0.59679096 -0.42528446 0.049137167 0.33933537 0.5951183000000001 0.81456139 0.51347237 0.7409389000000001 0.82628155 0.52163904 0.69541518 0.64173935 0.5767863 0.58165316 0.6270131999999999 0.64005163 0.63360328 0.45195683 0.75507765 0.64087958 0.5253825 0.66578504 0.42517263 0.56961246 0.63776834
-0.28827394 -0.33789631 -0.77754625 -0.72411581 -0.70891127 -0.90083177 -0.92681631 -1.206166 -1.2043277000000001 -1.2900816000000002 -1.4926257 -1.4695423 -1.6202575000000001 -1.9641802 -2.1405369999999997 -2.2355785 -2.1912347999999997 -2.4190612000000002 -2.3833501 -2.3352814 -2.4091296000000004 -1.7280793999999997 -1.508118 -1.1367001 -0.59679096 -0.42528446 0.049137167 0.33933537 0.5951183000000001 0.81456139 0.51347237 0.7409389000000001 0.82628155 0.52163904 0.69541518 0.64173935 0.5767863 0.58165316 0.6270131999999999 0.64005163 0.63360328 0.45195683 0.75507765 0.64087958 0.5253825 0.66578504 0.42517263 0.56961246 0.63776834 0.45642456
-0.33789631 -0.77754625 -0.72411581 -0.70891127 -0.90083177 -0.92681631 -1.206166 -1.2043277000000001 -1.2900816000000002 -1.4926257 -1.4695423 -1.6202575000000001 -1.9641802 -2.1405369999999997 -2.2355785 -2.1912347999999997 -2.4190612000000002 -2.3833501 -2.3352814 -2.4091296000000004 -1.7280793999999997 -1.508118 -1.1367001 -0.59679096 -0.42528446 0.049137167 0.33933537 0.5951183000000001 0.81456139 0.51347237 0.7409389000000001 0.82628155 0.52163904 0.69541518 0.64173935 0.5767863 0.58165316 0.6270131999999999 0.64005163 0.63360328 0.45195683 0.75507765 0.64087958 0.5253825 0.66578504 0.42517263 0.56961246 0.63776834 0.45642456 0.18157832
-0.77754625 -0.72411581 -0.70891127 -0.90083177 -0.92681631 -1.206166 -1.2043277000000001 -1.2900816000000002 -1.4926257 -1.4695423 -1.6202575000000001 -1.9641802 -2.1405369999999997 -2.2355785 -2.1912347999999997 -2.4190612000000002 -2.3833501 -2.3352814 -2.4091296000000004 -1.7280793999999997 -1.508118 -1.1367001 -0.59679096 -0.42528446 0.049137167 0.33933537 0.5951183000000001 0.81456139 0.51347237 0.7409389000000001 0.82628155 0.52163904 0.69541518 0.64173935 0.5767863 0.58165316 0.6270131999999999 0.64005163 0.63360328 0.45195683 0.75507765 0.64087958 0.5253825 0.66578504 0.42517263 0.56961246 0.63776834 0.45642456 0.18157832 0.47894905
-0.72411581 -0.70891127 -0.90083177 -0.92681631 -1.206166 -1.2043277000000001 -1.2900816000000002 -1.4926257 -1.4695423 -1.6202575000000001 -1.9641802 -2.1405369999999997 -2.2355785 -2.1912347999999997 -2.4190612000000002 -2.3833501 -2.3352814 -2.4091296000000004 -1.7280793999999997 -1.508118 -1.1367001 -0.59679096 -0.42528446 0.049137167 0.33933537 0.5951183000000001 0.81456139 0.51347237 0.7409389000000001 0.82628155 0.52163904 0.69541518 0.64173935 0.5767863 0.58165316 0.6270131999999999 0.64005163 0.63360328 0.45195683 0.75507765 0.64087958 0.5253825 0.66578504 0.42517263 0.56961246 0.63776834 0.45642456 0.18157832 0.47894905 0.46425351
-0.70891127 -0.90083177 -0.92681631 -1.206166 -1.2043277000000001 -1.2900816000000002 -1.4926257 -1.4695423 -1.6202575000000001 -1.9641802 -2.1405369999999997 -2.2355785 -2.1912347999999997 -2.4190612000000002 -2.3833501 -2.3352814 -2.4091296000000004 -1.7280793999999997 -1.508118 -1.1367001 -0.59679096 -0.42528446 0.049137167 0.33933537 0.5951183000000001 0.81456139 0.51347237 0.7409389000000001 0.82628155 0.52163904 0.69541518 0.64173935 0.5767863 0.58165316 0.6270131999999999 0.64005163 0.63360328 0.45195683 0.75507765 0.64087958 0.5253825 0.66578504 0.42517263 0.56961246 0.63776834 0.45642456 0.18157832 0.47894905 0.46425351 0.37112865
-0.90083177 -0.92681631 -1.206166 -1.2043277000000001 -1.2900816000000002 -1.4926257 -1.4695423 -1.6202575000000001 -1.9641802 -2.1405369999999997 -2.2355785 -2.1912347999999997 -2.4190612000000002 -2.3833501 -2.3352814 -2.4091296000000004 -1.7280793999999997 -1.508118 -1.1367001 -0.59679096 -0.42528446 0.049137167 0.33933537 0.5951183000000001 0.81456139 0.51347237 0.7409389000000001 0.82628155 0.52163904 0.69541518 0.64173935 0.5767863 0.58165316 0.6270131999999999 0.64005163 0.63360328 0.45195683 0.75507765 0.64087958 0.5253825 0.66578504 0.42517263 0.56961246 0.63776834 0.45642456 0.18157832 0.47894905 0.46425351 0.37112865 0.57090088
-0.92681631 -1.206166 -1.2043277000000001 -1.2900816000000002 -1.4926257 -1.4695423 -1.6202575000000001 -1.9641802 -2.1405369999999997 -2.2355785 -2.1912347999999997 -2.4190612000000002 -2.3833501 -2.3352814 -2.4091296000000004 -1.7280793999999997 -1.508118 -1.1367001 -0.59679096 -0.42528446 0.049137167 0.33933537 0.5951183000000001 0.81456139 0.51347237 0.7409389000000001 0.82628155 0.52163904 0.69541518 0.64173935 0.5767863 0.58165316 0.6270131999999999 0.64005163 0.63360328 0.45195683 0.75507765 0.64087958 0.5253825 0.66578504 0.42517263 0.56961246 0.63776834 0.45642456 0.18157832 0.47894905 0.46425351 0.37112865 0.57090088 0.15882532
-1.206166 -1.2043277000000001 -1.2900816000000002 -1.4926257 -1.4695423 -1.6202575000000001 -1.9641802 -2.1405369999999997 -2.2355785 -2.1912347999999997 -2.4190612000000002 -2.3833501 -2.3352814 -2.4091296000000004 -1.7280793999999997 -1.508118 -1.1367001 -0.59679096 -0.42528446 0.049137167 0.33933537 0.5951183000000001 0.81456139 0.51347237 0.7409389000000001 0.82628155 0.52163904 0.69541518 0.64173935 0.5767863 0.58165316 0.6270131999999999 0.64005163 0.63360328 0.45195683 0.75507765 0.64087958 0.5253825 0.66578504 0.42517263 0.56961246 0.63776834 0.45642456 0.18157832 0.47894905 0.46425351 0.37112865 0.57090088 0.15882532 0.5223865
-1.2043277000000001 -1.2900816000000002 -1.4926257 -1.4695423 -1.6202575000000001 -1.9641802 -2.1405369999999997 -2.2355785 -2.1912347999999997 -2.4190612000000002 -2.3833501 -2.3352814 -2.4091296000000004 -1.7280793999999997 -1.508118 -1.1367001 -0.59679096 -0.42528446 0.049137167 0.33933537 0.5951183000000001 0.81456139 0.51347237 0.7409389000000001 0.82628155 0.52163904 0.69541518 0.64173935 0.5767863 0.58165316 0.6270131999999999 0.64005163 0.63360328 0.45195683 0.75507765 0.64087958 0.5253825 0.66578504 0.42517263 0.56961246 0.63776834 0.45642456 0.18157832 0.47894905 0.46425351 0.37112865 0.57090088 0.15882532 0.5223865 0.56684164
-1.2900816000000002 -1.4926257 -1.4695423 -1.6202575000000001 -1.9641802 -2.1405369999999997 -2.2355785 -2.1912347999999997 -2.4190612000000002 -2.3833501 -2.3352814 -2.4091296000000004 -1.7280793999999997 -1.508118 -1.1367001 -0.59679096 -0.42528446 0.049137167 0.33933537 0.5951183000000001 0.81456139 0.51347237 0.7409389000000001 0.82628155 0.52163904 0.69541518 0.64173935 0.5767863 0.58165316 0.6270131999999999 0.64005163 0.63360328 0.45195683 0.75507765 0.64087958 0.5253825 0.66578504 0.42517263 0.56961246 0.63776834 0.45642456 0.18157832 0.47894905 0.46425351 0.37112865 0.57090088 0.15882532 0.5223865 0.56684164 0.061079969000000005
-1.4926257 -1.4695423 -1.6202575000000001 -1.9641802 -2.1405369999999997 -2.2355785 -2.1912347999999997 -2.4190612000000002 -2.3833501 -2.3352814 -2.4091296000000004 -1.7280793999999997 -1.508118 -1.1367001 -0.59679096 -0.42528446 0.049137167 0.33933537 0.5951183000000001 0.81456139 0.51347237 0.7409389000000001 0.82628155 0.52163904 0.69541518 0.64173935 0.5767863 0.58165316 0.6270131999999999 0.64005163 0.63360328 0.45195683 0.75507765 0.64087958 0.5253825 0.66578504 0.42517263 0.56961246 0.63776834 0.45642456 0.18157832 0.47894905 0.46425351 0.37112865 0.57090088 0.15882532 0.5223865 0.56684164 0.061079969000000005 0.47445439
-1.4695423 -1.6202575000000001 -1.9641802 -2.1405369999999997 -2.2355785 -2.1912347999999997 -2.4190612000000002 -2.3833501 -2.3352814 -2.4091296000000004 -1.7280793999999997 -1.508118 -1.1367001 -0.59679096 -0.42528446 0.049137167 0.33933537 0.5951183000000001 0.81456139 0.51347237 0.7409389000000001 0.82628155 0.52163904 0.69541518 0.64173935 0.5767863 0.58165316 0.6270131999999999 0.64005163 0.63360328 0.45195683 0.75507765 0.64087958 0.5253825 0.66578504 0.42517263 0.56961246 0.63776834 0.45642456 0.18157832 0.47894905 0.46425351 0.37112865 0.57090088 0.15882532 0.5223865 0.56684164 0.061079969000000005 0.47445439 0.34933249
-1.6202575000000001 -1.9641802 -2.1405369999999997 -2.2355785 -2.1912347999999997 -2.4190612000000002 -2.3833501 -2.3352814 -2.4091296000000004 -1.7280793999999997 -1.508118 -1.1367001 -0.59679096 -0.42528446 0.049137167 0.33933537 0.5951183000000001 0.81456139 0.51347237 0.7409389000000001 0.82628155 0.52163904 0.69541518 0.64173935 0.5767863 0.58165316 0.6270131999999999 0.64005163 0.63360328 0.45195683 0.75507765 0.64087958 0.5253825 0.66578504 0.42517263 0.56961246 0.63776834 0.45642456 0.18157832 0.47894905 0.46425351 0.37112865 0.57090088 0.15882532 0.5223865 0.56684164 0.061079969000000005 0.47445439 0.34933249 0.24237889999999998
-1.9641802 -2.1405369999999997 -2.2355785 -2.1912347999999997 -2.4190612000000002 -2.3833501 -2.3352814 -2.4091296000000004 -1.7280793999999997 -1.508118 -1.1367001 -0.59679096 -0.42528446 0.049137167 0.33933537 0.5951183000000001 0.81456139 0.51347237 0.7409389000000001 0.82628155 0.52163904 0.69541518 0.64173935 0.5767863 0.58165316 0.6270131999999999 0.64005163 0.63360328 0.45195683 0.75507765 0.64087958 0.5253825 0.66578504 0.42517263 0.56961246 0.63776834 0.45642456 0.18157832 0.47894905 0.46425351 0.37112865 0.57090088 0.15882532 0.5223865 0.56684164 0.061079969000000005 0.47445439 0.34933249 0.24237889999999998 0.60357026
-2.1405369999999997 -2.2355785 -2.1912347999999997 -2.4190612000000002 -2.3833501 -2.3352814 -2.4091296000000004 -1.7280793999999997 -1.508118 -1.1367001 -0.59679096 -0.42528446 0.049137167 0.33933537 0.5951183000000001 0.81456139 0.51347237 0.7409389000000001 0.82628155 0.52163904 0.69541518 0.64173935 0.5767863 0.58165316 0.6270131999999999 0.64005163 0.63360328 0.45195683 0.75507765 0.64087958 0.5253825 0.66578504 0.42517263 0.56961246 0.63776834 0.45642456 0.18157832 0.47894905 0.46425351 0.37112865 0.57090088 0.15882532 0.5223865 0.56684164 0.061079969000000005 0.47445439 0.34933249 0.24237889999999998 0.60357026 0.61054679
-2.2355785 -2.1912347999999997 -2.4190612000000002 -2.3833501 -2.3352814 -2.4091296000000004 -1.7280793999999997 -1.508118 -1.1367001 -0.59679096 -0.42528446 0.049137167 0.33933537 0.5951183000000001 0.81456139 0.51347237 0.7409389000000001 0.82628155 0.52163904 0.69541518 0.64173935 0.5767863 0.58165316 0.6270131999999999 0.64005163 0.63360328 0.45195683 0.75507765 0.64087958 0.5253825 0.66578504 0.42517263 0.56961246 0.63776834 0.45642456 0.18157832 0.47894905 0.46425351 0.37112865 0.57090088 0.15882532 0.5223865 0.56684164 0.061079969000000005 0.47445439 0.34933249 0.24237889999999998 0.60357026 0.61054679 0.78138735
-2.1912347999999997 -2.4190612000000002 -2.3833501 -2.3352814 -2.4091296000000004 -1.7280793999999997 -1.508118 -1.1367001 -0.59679096 -0.42528446 0.049137167 0.33933537 0.5951183000000001 0.81456139 0.51347237 0.7409389000000001 0.82628155 0.52163904 0.69541518 0.64173935 0.5767863 0.58165316 0.6270131999999999 0.64005163 0.63360328 0.45195683 0.75507765 0.64087958 0.5253825 0.66578504 0.42517263 0.56961246 0.63776834 0.45642456 0.18157832 0.47894905 0.46425351 0.37112865 0.57090088 0.15882532 0.5223865 0.56684164 0.061079969000000005 0.47445439 0.34933249 0.24237889999999998 0.60357026 0.61054679 0.78138735 1.0117046
-2.4190612000000002 -2.3833501 -2.3352814 -2.4091296000000004 -1.7280793999999997 -1.508118 -1.1367001 -0.59679096 -0.42528446 0.049137167 0.33933537 0.5951183000000001 0.81456139 0.51347237 0.7409389000000001 0.82628155 0.52163904 0.69541518 0.64173935 0.5767863 0.58165316 0.6270131999999999 0.64005163 0.63360328 0.45195683 0.75507765 0.64087958 0.5253825 0.66578504 0.42517263 0.56961246 0.63776834 0.45642456 0.18157832 0.47894905 0.46425351 0.37112865 0.57090088 0.15882532 0.5223865 0.56684164 0.061079969000000005 0.47445439 0.34933249 0.24237889999999998 0.60357026 0.61054679 0.78138735 1.0117046 0.57541476
-2.3833501 -2.3352814 -2.4091296000000004 -1.7280793999999997 -1.508118 -1.1367001 -0.59679096 -0.42528446 0.049137167 0.33933537 0.5951183000000001 0.81456139 0.51347237 0.7409389000000001 0.82628155 0.52163904 0.69541518 0.64173935 0.5767863 0.58165316 0.6270131999999999 0.64005163 0.63360328 0.45195683 0.75507765 0.64087958 0.5253825 0.66578504 0.42517263 0.56961246 0.63776834 0.45642456 0.18157832 0.47894905 0.46425351 0.37112865 0.57090088 0.15882532 0.5223865 0.56684164 0.061079969000000005 0.47445439 0.34933249 0.24237889999999998 0.60357026 0.61054679 0.78138735 1.0117046 0.57541476 0.33857279
-2.3352814 -2.4091296000000004 -1.7280793999999997 -1.508118 -1.1367001 -0.59679096 -0.42528446 0.049137167 0.33933537 0.5951183000000001 0.81456139 0.51347237 0.7409389000000001 0.82628155 0.52163904 0.69541518 0.64173935 0.5767863 0.58165316 0.6270131999999999 0.64005163 0.63360328 0.45195683 0.75507765 0.64087958 0.5253825 0.66578504 0.42517263 0.56961246 0.63776834 0.45642456 0.18157832 0.47894905 0.46425351 0.37112865 0.57090088 0.15882532 0.5223865 0.56684164 0.061079969000000005 0.47445439 0.34933249 0.24237889999999998 0.60357026 0.61054679 0.78138735 1.0117046 0.57541476 0.33857279 0.6034177
-2.4091296000000004 -1.7280793999999997 -1.508118 -1.1367001 -0.59679096 -0.42528446 0.049137167 0.33933537 0.5951183000000001 0.81456139 0.51347237 0.7409389000000001 0.82628155 0.52163904 0.69541518 0.64173935 0.5767863 0.58165316 0.6270131999999999 0.64005163 0.63360328 0.45195683 0.75507765 0.64087958 0.5253825 0.66578504 0.42517263 0.56961246 0.63776834 0.45642456 0.18157832 0.47894905 0.46425351 0.37112865 0.57090088 0.15882532 0.5223865 0.56684164 0.061079969000000005 0.47445439 0.34933249 0.24237889999999998 0.60357026 0.61054679 0.78138735 1.0117046 0.57541476 0.33857279 0.6034177 0.29554109999999995
-1.7280793999999997 -1.508118 -1.1367001 -0.59679096 -0.42528446 0.049137167 0.33933537 0.5951183000000001 0.81456139 0.51347237 0.7409389000000001 0.82628155 0.52163904 0.69541518 0.64173935 0.5767863 0.58165316 0.6270131999999999 0.64005163 0.63360328 0.45195683 0.75507765 0.64087958 0.5253825 0.66578504 0.42517263 0.56961246 0.63776834 0.45642456 0.18157832 0.47894905 0.46425351 0.37112865 0.57090088 0.15882532 0.5223865 0.56684164 0.061079969000000005 0.47445439 0.34933249 0.24237889999999998 0.60357026 0.61054679 0.78138735 1.0117046 0.57541476 0.33857279 0.6034177 0.29554109999999995 0.21154464
-1.508118 -1.1367001 -0.59679096 -0.42528446 0.049137167 0.33933537 0.5951183000000001 0.81456139 0.51347237 0.7409389000000001 0.82628155 0.52163904 0.69541518 0.64173935 0.5767863 0.58165316 0.6270131999999999 0.64005163 0.63360328 0.45195683 0.75507765 0.64087958 0.5253825 0.66578504 0.42517263 0.56961246 0.63776834 0.45642456 0.18157832 0.47894905 0.46425351 0.37112865 0.57090088 0.15882532 0.5223865 0.56684164 0.061079969000000005 0.47445439 0.34933249 0.24237889999999998 0.60357026 0.61054679 0.78138735 1.0117046 0.57541476 0.33857279 0.6034177 0.29554109999999995 0.21154464 0.41840097
-1.1367001 -0.59679096 -0.42528446 0.049137167 0.33933537 0.5951183000000001 0.81456139 0.51347237 0.7409389000000001 0.82628155 0.52163904 0.69541518 0.64173935 0.5767863 0.58165316 0.6270131999999999 0.64005163 0.63360328 0.45195683 0.75507765 0.64087958 0.5253825 0.66578504 0.42517263 0.56961246 0.63776834 0.45642456 0.18157832 0.47894905 0.46425351 0.37112865 0.57090088 0.15882532 0.5223865 0.56684164 0.061079969000000005 0.47445439 0.34933249 0.24237889999999998 0.60357026 0.61054679 0.78138735 1.0117046 0.57541476 0.33857279 0.6034177 0.29554109999999995 0.21154464 0.41840097 0.08850341800000001
-0.59679096 -0.42528446 0.049137167 0.33933537 0.5951183000000001 0.81456139 0.51347237 0.7409389000000001 0.82628155 0.52163904 0.69541518 0.64173935 0.5767863 0.58165316 0.6270131999999999 0.64005163 0.63360328 0.45195683 0.75507765 0.64087958 0.5253825 0.66578504 0.42517263 0.56961246 0.63776834 0.45642456 0.18157832 0.47894905 0.46425351 0.37112865 0.57090088 0.15882532 0.5223865 0.56684164 0.061079969000000005 0.47445439 0.34933249 0.24237889999999998 0.60357026 0.61054679 0.78138735 1.0117046 0.57541476 0.33857279 0.6034177 0.29554109999999995 0.21154464 0.41840097 0.08850341800000001 0.18171743
-0.42528446 0.049137167 0.33933537 0.5951183000000001 0.81456139 0.51347237 0.7409389000000001 0.82628155 0.52163904 0.69541518 0.64173935 0.5767863 0.58165316 0.6270131999999999 0.64005163 0.63360328 0.45195683 0.75507765 0.64087958 0.5253825 0.66578504 0.42517263 0.56961246 0.63776834 0.45642456 0.18157832 0.47894905 0.46425351 0.37112865 0.57090088 0.15882532 0.5223865 0.56684164 0.061079969000000005 0.47445439 0.34933249 0.24237889999999998 0.60357026 0.61054679 0.78138735 1.0117046 0.57541476 0.33857279 0.6034177 0.29554109999999995 0.21154464 0.41840097 0.08850341800000001 0.18171743 0.33434729
0.049137167 0.33933537 0.5951183000000001 0.81456139 0.51347237 0.7409389000000001 0.82628155 0.52163904 0.69541518 0.64173935 0.5767863 0.58165316 0.6270131999999999 0.64005163 0.63360328 0.45195683 0.75507765 0.64087958 0.5253825 0.66578504 0.42517263 0.56961246 0.63776834 0.45642456 0.18157832 0.47894905 0.46425351 0.37112865 0.57090088 0.15882532 0.5223865 0.56684164 0.061079969000000005 0.47445439 0.34933249 0.24237889999999998 0.60357026 0.61054679 0.78138735 1.0117046 0.57541476 0.33857279 0.6034177 0.29554109999999995 0.21154464 0.41840097 0.08850341800000001 0.18171743 0.33434729 0.027673647000000003
0.33933537 0.5951183000000001 0.81456139 0.51347237 0.7409389000000001 0.82628155 0.52163904 0.69541518 0.64173935 0.5767863 0.58165316 0.6270131999999999 0.64005163 0.63360328 0.45195683 0.75507765 0.64087958 0.5253825 0.66578504 0.42517263 0.56961246 0.63776834 0.45642456 0.18157832 0.47894905 0.46425351 0.37112865 0.57090088 0.15882532 0.5223865 0.56684164 0.061079969000000005 0.47445439 0.34933249 0.24237889999999998 0.60357026 0.61054679 0.78138735 1.0117046 0.57541476 0.33857279 0.6034177 0.29554109999999995 0.21154464 0.41840097 0.08850341800000001 0.18171743 0.33434729 0.027673647000000003 0.29401312
0.5951183000000001 0.81456139 0.51347237 0.7409389000000001 0.82628155 0.52163904 0.69541518 0.64173935 0.5767863 0.58165316 0.6270131999999999 0.64005163 0.63360328 0.45195683 0.75507765 0.64087958 0.5253825 0.66578504 0.42517263 0.56961246 0.63776834 0.45642456 0.18157832 0.47894905 0.46425351 0.37112865 0.57090088 0.15882532 0.5223865 0.56684164 0.061079969000000005 0.47445439 0.34933249 0.24237889999999998 0.60357026 0.61054679 0.78138735 1.0117046 0.57541476 0.33857279 0.6034177 0.29554109999999995 0.21154464 0.41840097 0.08850341800000001 0.18171743 0.33434729 0.027673647000000003 0.29401312 0.32948968
0.81456139 0.51347237 0.7409389000000001 0.82628155 0.52163904 0.69541518 0.64173935 0.5767863 0.58165316 0.6270131999999999 0.64005163 0.63360328 0.45195683 0.75507765 0.64087958 0.5253825 0.66578504 0.42517263 0.56961246 0.63776834 0.45642456 0.18157832 0.47894905 0.46425351 0.37112865 0.57090088 0.15882532 0.5223865 0.56684164 0.061079969000000005 0.47445439 0.34933249 0.24237889999999998 0.60357026 0.61054679 0.78138735 1.0117046 0.57541476 0.33857279 0.6034177 0.29554109999999995 0.21154464 0.41840097 0.08850341800000001 0.18171743 0.33434729 0.027673647000000003 0.29401312 0.32948968 -0.03062947
0.51347237 0.7409389000000001 0.82628155 0.52163904 0.69541518 0.64173935 0.5767863 0.58165316 0.6270131999999999 0.64005163 0.63360328 0.45195683 0.75507765 0.64087958 0.5253825 0.66578504 0.42517263 0.56961246 0.63776834 0.45642456 0.18157832 0.47894905 0.46425351 0.37112865 0.57090088 0.15882532 0.5223865 0.56684164 0.061079969000000005 0.47445439 0.34933249 0.24237889999999998 0.60357026 0.61054679 0.78138735 1.0117046 0.57541476 0.33857279 0.6034177 0.29554109999999995 0.21154464 0.41840097 0.08850341800000001 0.18171743 0.33434729 0.027673647000000003 0.29401312 0.32948968 -0.03062947 0.38243103
0.7409389000000001 0.82628155 0.52163904 0.69541518 0.64173935 0.5767863 0.58165316 0.6270131999999999 0.64005163 0.63360328 0.45195683 0.75507765 0.64087958 0.5253825 0.66578504 0.42517263 0.56961246 0.63776834 0.45642456 0.18157832 0.47894905 0.46425351 0.37112865 0.57090088 0.15882532 0.5223865 0.56684164 0.061079969000000005 0.47445439 0.34933249 0.24237889999999998 0.60357026 0.61054679 0.78138735 1.0117046 0.57541476 0.33857279 0.6034177 0.29554109999999995 0.21154464 0.41840097 0.08850341800000001 0.18171743 0.33434729 0.027673647000000003 0.29401312 0.32948968 -0.03062947 0.38243103 0.22032801
0.82628155 0.52163904 0.69541518 0.64173935 0.5767863 0.58165316 0.6270131999999999 0.64005163 0.63360328 0.45195683 0.75507765 0.64087958 0.5253825 0.66578504 0.42517263 0.56961246 0.63776834 0.45642456 0.18157832 0.47894905 0.46425351 0.37112865 0.57090088 0.15882532 0.5223865 0.56684164 0.061079969000000005 0.47445439 0.34933249 0.24237889999999998 0.60357026 0.61054679 0.78138735 1.0117046 0.57541476 0.33857279 0.6034177 0.29554109999999995 0.21154464 0.41840097 0.08850341800000001 0.18171743 0.33434729 0.027673647000000003 0.29401312 0.32948968 -0.03062947 0.38243103 0.22032801 0.21024644
0.52163904 0.69541518 0.64173935 0.5767863 0.58165316 0.6270131999999999 0.64005163 0.63360328 0.45195683 0.75507765 0.64087958 0.5253825 0.66578504 0.42517263 0.56961246 0.63776834 0.45642456 0.18157832 0.47894905 0.46425351 0.37112865 0.57090088 0.15882532 0.5223865 0.56684164 0.061079969000000005 0.47445439 0.34933249 0.24237889999999998 0.60357026 0.61054679 0.78138735 1.0117046 0.57541476 0.33857279 0.6034177 0.29554109999999995 0.21154464 0.41840097 0.08850341800000001 0.18171743 0.33434729 0.027673647000000003 0.29401312 0.32948968 -0.03062947 0.38243103 0.22032801 0.21024644 0.15923002
0.69541518 0.64173935 0.5767863 0.58165316 0.6270131999999999 0.64005163 0.63360328 0.45195683 0.75507765 0.64087958 0.5253825 0.66578504 0.42517263 0.56961246 0.63776834 0.45642456 0.18157832 0.47894905 0.46425351 0.37112865 0.57090088 0.15882532 0.5223865 0.56684164 0.061079969000000005 0.47445439 0.34933249 0.24237889999999998 0.60357026 0.61054679 0.78138735 1.0117046 0.57541476 0.33857279 0.6034177 0.29554109999999995 0.21154464 0.41840097 0.08850341800000001 0.18171743 0.33434729 0.027673647000000003 0.29401312 0.32948968 -0.03062947 0.38243103 0.22032801 0.21024644 0.15923002 0.27205537
0.64173935 0.5767863 0.58165316 0.6270131999999999 0.64005163 0.63360328 0.45195683 0.75507765 0.64087958 0.5253825 0.66578504 0.42517263 0.56961246 0.63776834 0.45642456 0.18157832 0.47894905 0.46425351 0.37112865 0.57090088 0.15882532 0.5223865 0.56684164 0.061079969000000005 0.47445439 0.34933249 0.24237889999999998 0.60357026 0.61054679 0.78138735 1.0117046 0.57541476 0.33857279 0.6034177 0.29554109999999995 0.21154464 0.41840097 0.08850341800000001 0.18171743 0.33434729 0.027673647000000003 0.29401312 0.32948968 -0.03062947 0.38243103 0.22032801 0.21024644 0.15923002 0.27205537 0.41075926
0.5767863 0.58165316 0.6270131999999999 0.64005163 0.63360328 0.45195683 0.75507765 0.64087958 0.5253825 0.66578504 0.42517263 0.56961246 0.63776834 0.45642456 0.18157832 0.47894905 0.46425351 0.37112865 0.57090088 0.15882532 0.5223865 0.56684164 0.061079969000000005 0.47445439 0.34933249 0.24237889999999998 0.60357026 0.61054679 0.78138735 1.0117046 0.57541476 0.33857279 0.6034177 0.29554109999999995 0.21154464 0.41840097 0.08850341800000001 0.18171743 0.33434729 0.027673647000000003 0.29401312 0.32948968 -0.03062947 0.38243103 0.22032801 0.21024644 0.15923002 0.27205537 0.41075926 1.0621578
0.58165316 0.6270131999999999 0.64005163 0.63360328 0.45195683 0.75507765 0.64087958 0.5253825 0.66578504 0.42517263 0.56961246 0.63776834 0.45642456 0.18157832 0.47894905 0.46425351 0.37112865 0.57090088 0.15882532 0.5223865 0.56684164 0.061079969000000005 0.47445439 0.34933249 0.24237889999999998 0.60357026 0.61054679 0.78138735 1.0117046 0.57541476 0.33857279 0.6034177 0.29554109999999995 0.21154464 0.41840097 0.08850341800000001 0.18171743 0.33434729 0.027673647000000003 0.29401312 0.32948968 -0.03062947 0.38243103 0.22032801 0.21024644 0.15923002 0.27205537 0.41075926 1.0621578 2.5427672
0.6270131999999999 0.64005163 0.63360328 0.45195683 0.75507765 0.64087958 0.5253825 0.66578504 0.42517263 0.56961246 0.63776834 0.45642456 0.18157832 0.47894905 0.46425351 0.37112865 0.57090088 0.15882532 0.5223865 0.56684164 0.061079969000000005 0.47445439 0.34933249 0.24237889999999998 0.60357026 0.61054679 0.78138735 1.0117046 0.57541476 0.33857279 0.6034177 0.29554109999999995 0.21154464 0.41840097 0.08850341800000001 0.18171743 0.33434729 0.027673647000000003 0.29401312 0.32948968 -0.03062947 0.38243103 0.22032801 0.21024644 0.15923002 0.27205537 0.41075926 1.0621578 2.5427672 2.1921942000000003
0.64005163 0.63360328 0.45195683 0.75507765 0.64087958 0.5253825 0.66578504 0.42517263 0.56961246 0.63776834 0.45642456 0.18157832 0.47894905 0.46425351 0.37112865 0.57090088 0.15882532 0.5223865 0.56684164 0.061079969000000005 0.47445439 0.34933249 0.24237889999999998 0.60357026 0.61054679 0.78138735 1.0117046 0.57541476 0.33857279 0.6034177 0.29554109999999995 0.21154464 0.41840097 0.08850341800000001 0.18171743 0.33434729 0.027673647000000003 0.29401312 0.32948968 -0.03062947 0.38243103 0.22032801 0.21024644 0.15923002 0.27205537 0.41075926 1.0621578 2.5427672 2.1921942000000003 1.5474987
0.63360328 0.45195683 0.75507765 0.64087958 0.5253825 0.66578504 0.42517263 0.56961246 0.63776834 0.45642456 0.18157832 0.47894905 0.46425351 0.37112865 0.57090088 0.15882532 0.5223865 0.56684164 0.061079969000000005 0.47445439 0.34933249 0.24237889999999998 0.60357026 0.61054679 0.78138735 1.0117046 0.57541476 0.33857279 0.6034177 0.29554109999999995 0.21154464 0.41840097 0.08850341800000001 0.18171743 0.33434729 0.027673647000000003 0.29401312 0.32948968 -0.03062947 0.38243103 0.22032801 0.21024644 0.15923002 0.27205537 0.41075926 1.0621578 2.5427672 2.1921942000000003 1.5474987 0.90299398
0.45195683 0.75507765 0.64087958 0.5253825 0.66578504 0.42517263 0.56961246 0.63776834 0.45642456 0.18157832 0.47894905 0.46425351 0.37112865 0.57090088 0.15882532 0.5223865 0.56684164 0.061079969000000005 0.47445439 0.34933249 0.24237889999999998 0.60357026 0.61054679 0.78138735 1.0117046 0.57541476 0.33857279 0.6034177 0.29554109999999995 0.21154464 0.41840097 0.08850341800000001 0.18171743 0.33434729 0.027673647000000003 0.29401312 0.32948968 -0.03062947 0.38243103 0.22032801 0.21024644 0.15923002 0.27205537 0.41075926 1.0621578 2.5427672 2.1921942000000003 1.5474987 0.90299398 -0.32566723
