1.1949281999999999 2.1907971 2.4432745 2.0007909 1.0049886000000001 0.18298559 0.84161448 1.3158618999999998 1.0808091999999998 1.3489719999999998 1.147414 0.31794044 -0.39567572 -0.52295339 -0.58800575 -0.73068718 -0.8104488000000001 -0.89688854 -0.96893386 -1.1616738000000002 -1.2225131 -1.2840793 -1.4718455 -1.661311 -1.9441718999999997 -2.039104 -2.1801167 -2.4142203999999996 -2.4477675 -2.4448851 -2.2974206 -2.1031254 -1.8770823 -1.5394675 -1.1415042 -0.81260151 -0.49507519 -0.17519287 0.07494074 0.30021044 0.40394604 0.46492757 0.50599689 0.57274747 0.51675065 0.51725614 0.51176246 0.44605113 0.46327016 0.47779571
2.1907971 2.4432745 2.0007909 1.0049886000000001 0.18298559 0.84161448 1.3158618999999998 1.0808091999999998 1.3489719999999998 1.147414 0.31794044 -0.39567572 -0.52295339 -0.58800575 -0.73068718 -0.8104488000000001 -0.89688854 -0.96893386 -1.1616738000000002 -1.2225131 -1.2840793 -1.4718455 -1.661311 -1.9441718999999997 -2.039104 -2.1801167 -2.4142203999999996 -2.4477675 -2.4448851 -2.2974206 -2.1031254 -1.8770823 -1.5394675 -1.1415042 -0.81260151 -0.49507519 -0.17519287 0.07494074 0.30021044 0.40394604 0.46492757 0.50599689 0.57274747 0.51675065 0.51725614 0.51176246 0.44605113 0.46327016 0.47779571 0.50613804
2.4432745 2.0007909 1.0049886000000001 0.18298559 0.84161448 1.3158618999999998 1.0808091999999998 1.3489719999999998 1.147414 0.31794044 -0.39567572 -0.52295339 -0.58800575 -0.73068718 -0.8104488000000001 -0.89688854 -0.96893386 -1.1616738000000002 -1.2225131 -1.2840793 -1.4718455 -1.661311 -1.9441718999999997 -2.039104 -2.1801167 -2.4142203999999996 -2.4477675 -2.4448851 -2.2974206 -2.1031254 -1.8770823 -1.5394675 -1.1415042 -0.81260151 -0.49507519 -0.17519287 0.07494074 0.30021044 0.40394604 0.46492757 0.50599689 0.57274747 0.51675065 0.51725614 0.51176246 0.44605113 0.46327016 0.47779571 0.50613804 0.52307572
2.0007909 1.0049886000000001 0.18298559 0.84161448 1.3158618999999998 1.0808091999999998 1.3489719999999998 1.147414 0.31794044 -0.39567572 -0.52295339 -0.58800575 -0.73068718 -0.8104488000000001 -0.89688854 -0.96893386 -1.1616738000000002 -1.2225131 -1.2840793 -1.4718455 -1.661311 -1.9441718999999997 -2.039104 -2.1801167 -2.4142203999999996 -2.4477675 -2.4448851 -2.2974206 -2.1031254 -1.8770823 -1.5394675 -1.1415042 -0.81260151 -0.49507519 -0.17519287 0.07494074 0.30021044 0.40394604 0.46492757 0.50599689 0.57274747 0.51675065 0.51725614 0.51176246 0.44605113 0.46327016 0.47779571 0.50613804 0.52307572 0.49089689
1.0049886000000001 0.18298559 0.84161448 1.3158618999999998 1.0808091999999998 1.3489719999999998 1.147414 0.31794044 -0.39567572 -0.52295339 -0.58800575 -0.73068718 -0.8104488000000001 -0.89688854 -0.96893386 -1.1616738000000002 -1.2225131 -1.2840793 -1.4718455 -1.661311 -1.9441718999999997 -2.039104 -2.1801167 -2.4142203999999996 -2.4477675 -2.4448851 -2.2974206 -2.1031254 -1.8770823 -1.5394675 -1.1415042 -0.81260151 -0.49507519 -0.17519287 0.07494074 0.30021044 0.40394604 0.46492757 0.50599689 0.57274747 0.51675065 0.51725614 0.51176246 0.44605113 0.46327016 0.47779571 0.50613804 0.52307572 0.49089689 0.55358738
0.18298559 0.84161448 1.3158618999999998 1.0808091999999998 1.3489719999999998 1.147414 0.31794044 -0.39567572 -0.52295339 -0.58800575 -0.73068718 -0.8104488000000001 -0.89688854 -0.96893386 -1.1616738000000002 -1.2225131 -1.2840793 -1.4718455 -1.661311 -1.9441718999999997 -2.039104 -2.1801167 -2.4142203999999996 -2.4477675 -2.4448851 -2.2974206 -2.1031254 -1.8770823 -1.5394675 -1.1415042 -0.81260151 -0.49507519 -0.17519287 0.07494074 0.30021044 0.40394604 0.46492757 0.50599689 0.57274747 0.51675065 0.51725614 0.51176246 0.44605113 0.46327016 0.47779571 0.50613804 0.52307572 0.49089689 0.55358738 0.57940421
0.84161448 1.3158618999999998 1.0808091999999998 1.3489719999999998 1.147414 0.31794044 -0.39567572 -0.52295339 -0.58800575 -0.73068718 -0.8104488000000001 -0.89688854 -0.96893386 -1.1616738000000002 -1.2225131 -1.2840793 -1.4718455 -1.661311 -1.9441718999999997 -2.039104 -2.1801167 -2.4142203999999996 -2.4477675 -2.4448851 -2.2974206 -2.1031254 -1.8770823 -1.5394675 -1.1415042 -0.81260151 -0.49507519 -0.17519287 0.07494074 0.30021044 0.40394604 0.46492757 0.50599689 0.57274747 0.51675065 0.51725614 0.51176246 0.44605113 0.46327016 0.47779571 0.50613804 0.52307572 0.49089689 0.55358738 0.57940421 0.5108784000000001
1.3158618999999998 1.0808091999999998 1.3489719999999998 1.147414 0.31794044 -0.39567572 -0.52295339 -0.58800575 -0.73068718 -0.8104488000000001 -0.89688854 -0.96893386 -1.1616738000000002 -1.2225131 -1.2840793 -1.4718455 -1.661311 -1.9441718999999997 -2.039104 -2.1801167 -2.4142203999999996 -2.4477675 -2.4448851 -2.2974206 -2.1031254 -1.8770823 -1.5394675 -1.1415042 -0.81260151 -0.49507519 -0.17519287 0.07494074 0.30021044 0.40394604 0.46492757 0.50599689 0.57274747 0.51675065 0.51725614 0.51176246 0.44605113 0.46327016 0.47779571 0.50613804 0.52307572 0.49089689 0.55358738 0.57940421 0.5108784000000001 0.57680163
1.0808091999999998 1.3489719999999998 1.147414 0.31794044 -0.39567572 -0.52295339 -0.58800575 -0.73068718 -0.8104488000000001 -0.89688854 -0.96893386 -1.1616738000000002 -1.2225131 -1.2840793 -1.4718455 -1.661311 -1.9441718999999997 -2.039104 -2.1801167 -2.4142203999999996 -2.4477675 -2.4448851 -2.2974206 -2.1031254 -1.8770823 -1.5394675 -1.1415042 -0.81260151 -0.49507519 -0.17519287 0.07494074 0.30021044 0.40394604 0.46492757 0.50599689 0.57274747 0.51675065 0.51725614 0.51176246 0.44605113 0.46327016 0.47779571 0.50613804 0.52307572 0.49089689 0.55358738 0.57940421 0.5108784000000001 0.57680163 0.55857759
1.3489719999999998 1.147414 0.31794044 -0.39567572 -0.52295339 -0.58800575 -0.73068718 -0.8104488000000001 -0.89688854 -0.96893386 -1.1616738000000002 -1.2225131 -1.2840793 -1.4718455 -1.661311 -1.9441718999999997 -2.039104 -2.1801167 -2.4142203999999996 -2.4477675 -2.4448851 -2.2974206 -2.1031254 -1.8770823 -1.5394675 -1.1415042 -0.81260151 -0.49507519 -0.17519287 0.07494074 0.30021044 0.40394604 0.46492757 0.50599689 0.57274747 0.51675065 0.51725614 0.51176246 0.44605113 0.46327016 0.47779571 0.50613804 0.52307572 0.49089689 0.55358738 0.57940421 0.5108784000000001 0.57680163 0.55857759 0.54380342
1.147414 0.31794044 -0.39567572 -0.52295339 -0.58800575 -0.73068718 -0.8104488000000001 -0.89688854 -0.96893386 -1.1616738000000002 -1.2225131 -1.2840793 -1.4718455 -1.661311 -1.9441718999999997 -2.039104 -2.1801167 -2.4142203999999996 -2.4477675 -2.4448851 -2.2974206 -2.1031254 -1.8770823 -1.5394675 -1.1415042 -0.81260151 -0.49507519 -0.17519287 0.07494074 0.30021044 0.40394604 0.46492757 0.50599689 0.57274747 0.51675065 0.51725614 0.51176246 0.44605113 0.46327016 0.47779571 0.50613804 0.52307572 0.49089689 0.55358738 0.57940421 0.5108784000000001 0.57680163 0.55857759 0.54380342 0.54597403
0.31794044 -0.39567572 -0.52295339 -0.58800575 -0.73068718 -0.8104488000000001 -0.89688854 -0.96893386 -1.1616738000000002 -1.2225131 -1.2840793 -1.4718455 -1.661311 -1.9441718999999997 -2.039104 -2.1801167 -2.4142203999999996 -2.4477675 -2.4448851 -2.2974206 -2.1031254 -1.8770823 -1.5394675 -1.1415042 -0.81260151 -0.49507519 -0.17519287 0.07494074 0.30021044 0.40394604 0.46492757 0.50599689 0.57274747 0.51675065 0.51725614 0.51176246 0.44605113 0.46327016 0.47779571 0.50613804 0.52307572 0.49089689 0.55358738 0.57940421 0.5108784000000001 0.57680163 0.55857759 0.54380342 0.54597403 0.45310459
-0.39567572 -0.52295339 -0.58800575 -0.73068718 -0.8104488000000001 -0.89688854 -0.96893386 -1.1616738000000002 -1.2225131 -1.2840793 -1.4718455 -1.661311 -1.9441718999999997 -2.039104 -2.1801167 -2.4142203999999996 -2.4477675 -2.4448851 -2.2974206 -2.1031254 -1.8770823 -1.5394675 -1.1415042 -0.81260151 -0.49507519 -0.17519287 0.07494074 0.30021044 0.40394604 0.46492757 0.50599689 0.57274747 0.51675065 0.51725614 0.51176246 0.44605113 0.46327016 0.47779571 0.50613804 0.52307572 0.49089689 0.55358738 0.57940421 0.5108784000000001 0.57680163 0.55857759 0.54380342 0.54597403 0.45310459 0.47026043
-0.52295339 -0.58800575 -0.73068718 -0.8104488000000001 -0.89688854 -0.96893386 -1.1616738000000002 -1.2225131 -1.2840793 -1.4718455 -1.661311 -1.9441718999999997 -2.039104 -2.1801167 -2.4142203999999996 -2.4477675 -2.4448851 -2.2974206 -2.1031254 -1.8770823 -1.5394675 -1.1415042 -0.81260151 -0.49507519 -0.17519287 0.07494074 0.30021044 0.40394604 0.46492757 0.50599689 0.57274747 0.51675065 0.51725614 0.51176246 0.44605113 0.46327016 0.47779571 0.50613804 0.52307572 0.49089689 0.55358738 0.57940421 0.5108784000000001 0.57680163 0.55857759 0.54380342 0.54597403 0.45310459 0.47026043 0.51533453
-0.58800575 -0.73068718 -0.8104488000000001 -0.89688854 -0.96893386 -1.1616738000000002 -1.2225131 -1.2840793 -1.4718455 -1.661311 -1.9441718999999997 -2.039104 -2.1801167 -2.4142203999999996 -2.4477675 -2.4448851 -2.2974206 -2.1031254 -1.8770823 -1.5394675 -1.1415042 -0.81260151 -0.49507519 -0.17519287 0.07494074 0.30021044 0.40394604 0.46492757 0.50599689 0.57274747 0.51675065 0.51725614 0.51176246 0.44605113 0.46327016 0.47779571 0.50613804 0.52307572 0.49089689 0.55358738 0.57940421 0.5108784000000001 0.57680163 0.55857759 0.54380342 0.54597403 0.45310459 0.47026043 0.51533453 0.39092365
-0.73068718 -0.8104488000000001 -0.89688854 -0.96893386 -1.1616738000000002 -1.2225131 -1.2840793 -1.4718455 -1.661311 -1.9441718999999997 -2.039104 -2.1801167 -2.4142203999999996 -2.4477675 -2.4448851 -2.2974206 -2.1031254 -1.8770823 -1.5394675 -1.1415042 -0.81260151 -0.49507519 -0.17519287 0.07494074 0.30021044 0.40394604 0.46492757 0.50599689 0.57274747 0.51675065 0.51725614 0.51176246 0.44605113 0.46327016 0.47779571 0.50613804 0.52307572 0.49089689 0.55358738 0.57940421 0.5108784000000001 0.57680163 0.55857759 0.54380342 0.54597403 0.45310459 0.47026043 0.51533453 0.39092365 0.40203223
-0.8104488000000001 -0.89688854 -0.96893386 -1.1616738000000002 -1.2225131 -1.2840793 -1.4718455 -1.661311 -1.9441718999999997 -2.039104 -2.1801167 -2.4142203999999996 -2.4477675 -2.4448851 -2.2974206 -2.1031254 -1.8770823 -1.5394675 -1.1415042 -0.81260151 -0.49507519 -0.17519287 0.07494074 0.30021044 0.40394604 0.46492757 0.50599689 0.57274747 0.51675065 0.51725614 0.51176246 0.44605113 0.46327016 0.47779571 0.50613804 0.52307572 0.49089689 0.55358738 0.57940421 0.5108784000000001 0.57680163 0.55857759 0.54380342 0.54597403 0.45310459 0.47026043 0.51533453 0.39092365 0.40203223 0.39944293
-0.89688854 -0.96893386 -1.1616738000000002 -1.2225131 -1.2840793 -1.4718455 -1.661311 -1.9441718999999997 -2.039104 -2.1801167 -2.4142203999999996 -2.4477675 -2.4448851 -2.2974206 -2.1031254 -1.8770823 -1.5394675 -1.1415042 -0.81260151 -0.49507519 -0.17519287 0.07494074 0.30021044 0.40394604 0.46492757 0.50599689 0.57274747 0.51675065 0.51725614 0.51176246 0.44605113 0.46327016 0.47779571 0.50613804 0.52307572 0.49089689 0.55358738 0.57940421 0.5108784000000001 0.57680163 0.55857759 0.54380342 0.54597403 0.45310459 0.47026043 0.51533453 0.39092365 0.40203223 0.39944293 0.33478044
-0.96893386 -1.1616738000000002 -1.2225131 -1.2840793 -1.4718455 -1.661311 -1.9441718999999997 -2.039104 -2.1801167 -2.4142203999999996 -2.4477675 -2.4448851 -2.2974206 -2.1031254 -1.8770823 -1.5394675 -1.1415042 -0.81260151 -0.49507519 -0.17519287 0.07494074 0.30021044 0.40394604 0.46492757 0.50599689 0.57274747 0.51675065 0.51725614 0.51176246 0.44605113 0.46327016 0.47779571 0.50613804 0.52307572 0.49089689 0.55358738 0.57940421 0.5108784000000001 0.57680163 0.55857759 0.54380342 0.54597403 0.45310459 0.47026043 0.51533453 0.39092365 0.40203223 0.39944293 0.33478044 0.39259157
-1.1616738000000002 -1.2225131 -1.2840793 -1.4718455 -1.661311 -1.9441718999999997 -2.039104 -2.1801167 -2.4142203999999996 -2.4477675 -2.4448851 -2.2974206 -2.1031254 -1.8770823 -1.5394675 -1.1415042 -0.81260151 -0.49507519 -0.17519287 0.07494074 0.30021044 0.40394604 0.46492757 0.50599689 0.57274747 0.51675065 0.51725614 0.51176246 0.44605113 0.46327016 0.47779571 0.50613804 0.52307572 0.49089689 0.55358738 0.57940421 0.5108784000000001 0.57680163 0.55857759 0.54380342 0.54597403 0.45310459 0.47026043 0.51533453 0.39092365 0.40203223 0.39944293 0.33478044 0.39259157 0.28207243
-1.2225131 -1.2840793 -1.4718455 -1.661311 -1.9441718999999997 -2.039104 -2.1801167 -2.4142203999999996 -2.4477675 -2.4448851 -2.2974206 -2.1031254 -1.8770823 -1.5394675 -1.1415042 -0.81260151 -0.49507519 -0.17519287 0.07494074 0.30021044 0.40394604 0.46492757 0.50599689 0.57274747 0.51675065 0.51725614 0.51176246 0.44605113 0.46327016 0.47779571 0.50613804 0.52307572 0.49089689 0.55358738 0.57940421 0.5108784000000001 0.57680163 0.55857759 0.54380342 0.54597403 0.45310459 0.47026043 0.51533453 0.39092365 0.40203223 0.39944293 0.33478044 0.39259157 0.28207243 0.31198979
-1.2840793 -1.4718455 -1.661311 -1.9441718999999997 -2.039104 -2.1801167 -2.4142203999999996 -2.4477675 -2.4448851 -2.2974206 -2.1031254 -1.8770823 -1.5394675 -1.1415042 -0.81260151 -0.49507519 -0.17519287 0.07494074 0.30021044 0.40394604 0.46492757 0.50599689 0.57274747 0.51675065 0.51725614 0.51176246 0.44605113 0.46327016 0.47779571 0.50613804 0.52307572 0.49089689 0.55358738 0.57940421 0.5108784000000001 0.57680163 0.55857759 0.54380342 0.54597403 0.45310459 0.47026043 0.51533453 0.39092365 0.40203223 0.39944293 0.33478044 0.39259157 0.28207243 0.31198979 0.34734552
-1.4718455 -1.661311 -1.9441718999999997 -2.039104 -2.1801167 -2.4142203999999996 -2.4477675 -2.4448851 -2.2974206 -2.1031254 -1.8770823 -1.5394675 -1.1415042 -0.81260151 -0.49507519 -0.17519287 0.07494074 0.30021044 0.40394604 0.46492757 0.50599689 0.57274747 0.51675065 0.51725614 0.51176246 0.44605113 0.46327016 0.47779571 0.50613804 0.52307572 0.49089689 0.55358738 0.57940421 0.5108784000000001 0.57680163 0.55857759 0.54380342 0.54597403 0.45310459 0.47026043 0.51533453 0.39092365 0.40203223 0.39944293 0.33478044 0.39259157 0.28207243 0.31198979 0.34734552 0.35167915
-1.661311 -1.9441718999999997 -2.039104 -2.1801167 -2.4142203999999996 -2.4477675 -2.4448851 -2.2974206 -2.1031254 -1.8770823 -1.5394675 -1.1415042 -0.81260151 -0.49507519 -0.17519287 0.07494074 0.30021044 0.40394604 0.46492757 0.50599689 0.57274747 0.51675065 0.51725614 0.51176246 0.44605113 0.46327016 0.47779571 0.50613804 0.52307572 0.49089689 0.55358738 0.57940421 0.5108784000000001 0.57680163 0.55857759 0.54380342 0.54597403 0.45310459 0.47026043 0.51533453 0.39092365 0.40203223 0.39944293 0.33478044 0.39259157 0.28207243 0.31198979 0.34734552 0.35167915 0.51548996
-1.9441718999999997 -2.039104 -2.1801167 -2.4142203999999996 -2.4477675 -2.4448851 -2.2974206 -2.1031254 -1.8770823 -1.5394675 -1.1415042 -0.81260151 -0.49507519 -0.17519287 0.07494074 0.30021044 0.40394604 0.46492757 0.50599689 0.57274747 0.51675065 0.51725614 0.51176246 0.44605113 0.46327016 0.47779571 0.50613804 0.52307572 0.49089689 0.55358738 0.57940421 0.5108784000000001 0.57680163 0.55857759 0.54380342 0.54597403 0.45310459 0.47026043 0.51533453 0.39092365 0.40203223 0.39944293 0.33478044 0.39259157 0.28207243 0.31198979 0.34734552 0.35167915 0.51548996 0.60228285
-2.039104 -2.1801167 -2.4142203999999996 -2.4477675 -2.4448851 -2.2974206 -2.1031254 -1.8770823 -1.5394675 -1.1415042 -0.81260151 -0.49507519 -0.17519287 0.07494074 0.30021044 0.40394604 0.46492757 0.50599689 0.57274747 0.51675065 0.51725614 0.51176246 0.44605113 0.46327016 0.47779571 0.50613804 0.52307572 0.49089689 0.55358738 0.57940421 0.5108784000000001 0.57680163 0.55857759 0.54380342 0.54597403 0.45310459 0.47026043 0.51533453 0.39092365 0.40203223 0.39944293 0.33478044 0.39259157 0.28207243 0.31198979 0.34734552 0.35167915 0.51548996 0.60228285 0.65119116
-2.1801167 -2.4142203999999996 -2.4477675 -2.4448851 -2.2974206 -2.1031254 -1.8770823 -1.5394675 -1.1415042 -0.81260151 -0.49507519 -0.17519287 0.07494074 0.30021044 0.40394604 0.46492757 0.50599689 0.57274747 0.51675065 0.51725614 0.51176246 0.44605113 0.46327016 0.47779571 0.50613804 0.52307572 0.49089689 0.55358738 0.57940421 0.5108784000000001 0.57680163 0.55857759 0.54380342 0.54597403 0.45310459 0.47026043 0.51533453 0.39092365 0.40203223 0.39944293 0.33478044 0.39259157 0.28207243 0.31198979 0.34734552 0.35167915 0.51548996 0.60228285 0.65119116 0.63261702
-2.4142203999999996 -2.4477675 -2.4448851 -2.2974206 -2.1031254 -1.8770823 -1.5394675 -1.1415042 -0.81260151 -0.49507519 -0.17519287 0.07494074 0.30021044 0.40394604 0.46492757 0.50599689 0.57274747 0.51675065 0.51725614 0.51176246 0.44605113 0.46327016 0.47779571 0.50613804 0.52307572 0.49089689 0.55358738 0.57940421 0.5108784000000001 0.57680163 0.55857759 0.54380342 0.54597403 0.45310459 0.47026043 0.51533453 0.39092365 0.40203223 0.39944293 0.33478044 0.39259157 0.28207243 0.31198979 0.34734552 0.35167915 0.51548996 0.60228285 0.65119116 0.63261702 0.4099852
-2.4477675 -2.4448851 -2.2974206 -2.1031254 -1.8770823 -1.5394675 -1.1415042 -0.81260151 -0.49507519 -0.17519287 0.07494074 0.30021044 0.40394604 0.46492757 0.50599689 0.57274747 0.51675065 0.51725614 0.51176246 0.44605113 0.46327016 0.47779571 0.50613804 0.52307572 0.49089689 0.55358738 0.57940421 0.5108784000000001 0.57680163 0.55857759 0.54380342 0.54597403 0.45310459 0.47026043 0.51533453 0.39092365 0.40203223 0.39944293 0.33478044 0.39259157 0.28207243 0.31198979 0.34734552 0.35167915 0.51548996 0.60228285 0.65119116 0.63261702 0.4099852 0.36886411
-2.4448851 -2.2974206 -2.1031254 -1.8770823 -1.5394675 -1.1415042 -0.81260151 -0.49507519 -0.17519287 0.07494074 0.30021044 0.40394604 0.46492757 0.50599689 0.57274747 0.51675065 0.51725614 0.51176246 0.44605113 0.46327016 0.47779571 0.50613804 0.52307572 0.49089689 0.55358738 0.57940421 0.5108784000000001 0.57680163 0.55857759 0.54380342 0.54597403 0.45310459 0.47026043 0.51533453 0.39092365 0.40203223 0.39944293 0.33478044 0.39259157 0.28207243 0.31198979 0.34734552 0.35167915 0.51548996 0.60228285 0.65119116 0.63261702 0.4099852 0.36886411 0.31356913
-2.2974206 -2.1031254 -1.8770823 -1.5394675 -1.1415042 -0.81260151 -0.49507519 -0.17519287 0.07494074 0.30021044 0.40394604 0.46492757 0.50599689 0.57274747 0.51675065 0.51725614 0.51176246 0.44605113 0.46327016 0.47779571 0.50613804 0.52307572 0.49089689 0.55358738 0.57940421 0.5108784000000001 0.57680163 0.55857759 0.54380342 0.54597403 0.45310459 0.47026043 0.51533453 0.39092365 0.40203223 0.39944293 0.33478044 0.39259157 0.28207243 0.31198979 0.34734552 0.35167915 0.51548996 0.60228285 0.65119116 0.63261702 0.4099852 0.36886411 0.31356913 0.13937583
-2.1031254 -1.8770823 -1.5394675 -1.1415042 -0.81260151 -0.49507519 -0.17519287 0.07494074 0.30021044 0.40394604 0.46492757 0.50599689 0.57274747 0.51675065 0.51725614 0.51176246 0.44605113 0.46327016 0.47779571 0.50613804 0.52307572 0.49089689 0.55358738 0.57940421 0.5108784000000001 0.57680163 0.55857759 0.54380342 0.54597403 0.45310459 0.47026043 0.51533453 0.39092365 0.40203223 0.39944293 0.33478044 0.39259157 0.28207243 0.31198979 0.34734552 0.35167915 0.51548996 0.60228285 0.65119116 0.63261702 0.4099852 0.36886411 0.31356913 0.13937583 0.093670719
-1.8770823 -1.5394675 -1.1415042 -0.81260151 -0.49507519 -0.17519287 0.07494074 0.30021044 0.40394604 0.46492757 0.50599689 0.57274747 0.51675065 0.51725614 0.51176246 0.44605113 0.46327016 0.47779571 0.50613804 0.52307572 0.49089689 0.55358738 0.57940421 0.5108784000000001 0.57680163 0.55857759 0.54380342 0.54597403 0.45310459 0.47026043 0.51533453 0.39092365 0.40203223 0.39944293 0.33478044 0.39259157 0.28207243 0.31198979 0.34734552 0.35167915 0.51548996 0.60228285 0.65119116 0.63261702 0.4099852 0.36886411 0.31356913 0.13937583 0.093670719 0.077365223
-1.5394675 -1.1415042 -0.81260151 -0.49507519 -0.17519287 0.07494074 0.30021044 0.40394604 0.46492757 0.50599689 0.57274747 0.51675065 0.51725614 0.51176246 0.44605113 0.46327016 0.47779571 0.50613804 0.52307572 0.49089689 0.55358738 0.57940421 0.5108784000000001 0.57680163 0.55857759 0.54380342 0.54597403 0.45310459 0.47026043 0.51533453 0.39092365 0.40203223 0.39944293 0.33478044 0.39259157 0.28207243 0.31198979 0.34734552 0.35167915 0.51548996 0.60228285 0.65119116 0.63261702 0.4099852 0.36886411 0.31356913 0.13937583 0.093670719 0.077365223 0.12533221
-1.1415042 -0.81260151 -0.49507519 -0.17519287 0.07494074 0.30021044 0.40394604 0.46492757 0.50599689 0.57274747 0.51675065 0.51725614 0.51176246 0.44605113 0.46327016 0.47779571 0.50613804 0.52307572 0.49089689 0.55358738 0.57940421 0.5108784000000001 0.57680163 0.55857759 0.54380342 0.54597403 0.45310459 0.47026043 0.51533453 0.39092365 0.40203223 0.39944293 0.33478044 0.39259157 0.28207243 0.31198979 0.34734552 0.35167915 0.51548996 0.60228285 0.65119116 0.63261702 0.4099852 0.36886411 0.31356913 0.13937583 0.093670719 0.077365223 0.12533221 0.060442159
-0.81260151 -0.49507519 -0.17519287 0.07494074 0.30021044 0.40394604 0.46492757 0.50599689 0.57274747 0.51675065 0.51725614 0.51176246 0.44605113 0.46327016 0.47779571 0.50613804 0.52307572 0.49089689 0.55358738 0.57940421 0.5108784000000001 0.57680163 0.55857759 0.54380342 0.54597403 0.45310459 0.47026043 0.51533453 0.39092365 0.40203223 0.39944293 0.33478044 0.39259157 0.28207243 0.31198979 0.34734552 0.35167915 0.51548996 0.60228285 0.65119116 0.63261702 0.4099852 0.36886411 0.31356913 0.13937583 0.093670719 0.077365223 0.12533221 0.060442159 0.083074091
-0.49507519 -0.17519287 0.07494074 0.30021044 0.40394604 0.46492757 0.50599689 0.57274747 0.51675065 0.51725614 0.51176246 0.44605113 0.46327016 0.47779571 0.50613804 0.52307572 0.49089689 0.55358738 0.57940421 0.5108784000000001 0.57680163 0.55857759 0.54380342 0.54597403 0.45310459 0.47026043 0.51533453 0.39092365 0.40203223 0.39944293 0.33478044 0.39259157 0.28207243 0.31198979 0.34734552 0.35167915 0.51548996 0.60228285 0.65119116 0.63261702 0.4099852 0.36886411 0.31356913 0.13937583 0.093670719 0.077365223 0.12533221 0.060442159 0.083074091 0.054984777
-0.17519287 0.07494074 0.30021044 0.40394604 0.46492757 0.50599689 0.57274747 0.51675065 0.51725614 0.51176246 0.44605113 0.46327016 0.47779571 0.50613804 0.52307572 0.49089689 0.55358738 0.57940421 0.5108784000000001 0.57680163 0.55857759 0.54380342 0.54597403 0.45310459 0.47026043 0.51533453 0.39092365 0.40203223 0.39944293 0.33478044 0.39259157 0.28207243 0.31198979 0.34734552 0.35167915 0.51548996 0.60228285 0.65119116 0.63261702 0.4099852 0.36886411 0.31356913 0.13937583 0.093670719 0.077365223 0.12533221 0.060442159 0.083074091 0.054984777 0.061965212
0.07494074 0.30021044 0.40394604 0.46492757 0.50599689 0.57274747 0.51675065 0.51725614 0.51176246 0.44605113 0.46327016 0.47779571 0.50613804 0.52307572 0.49089689 0.55358738 0.57940421 0.5108784000000001 0.57680163 0.55857759 0.54380342 0.54597403 0.45310459 0.47026043 0.51533453 0.39092365 0.40203223 0.39944293 0.33478044 0.39259157 0.28207243 0.31198979 0.34734552 0.35167915 0.51548996 0.60228285 0.65119116 0.63261702 0.4099852 0.36886411 0.31356913 0.13937583 0.093670719 0.077365223 0.12533221 0.060442159 0.083074091 0.054984777 0.061965212 0.086669753
0.30021044 0.40394604 0.46492757 0.50599689 0.57274747 0.51675065 0.51725614 0.51176246 0.44605113 0.46327016 0.47779571 0.50613804 0.52307572 0.49089689 0.55358738 0.57940421 0.5108784000000001 0.57680163 0.55857759 0.54380342 0.54597403 0.45310459 0.47026043 0.51533453 0.39092365 0.40203223 0.39944293 0.33478044 0.39259157 0.28207243 0.31198979 0.34734552 0.35167915 0.51548996 0.60228285 0.65119116 0.63261702 0.4099852 0.36886411 0.31356913 0.13937583 0.093670719 0.077365223 0.12533221 0.060442159 0.083074091 0.054984777 0.061965212 0.086669753 0.065612145
0.40394604 0.46492757 0.50599689 0.57274747 0.51675065 0.51725614 0.51176246 0.44605113 0.46327016 0.47779571 0.50613804 0.52307572 0.49089689 0.55358738 0.57940421 0.5108784000000001 0.57680163 0.55857759 0.54380342 0.54597403 0.45310459 0.47026043 0.51533453 0.39092365 0.40203223 0.39944293 0.33478044 0.39259157 0.28207243 0.31198979 0.34734552 0.35167915 0.51548996 0.60228285 0.65119116 0.63261702 0.4099852 0.36886411 0.31356913 0.13937583 0.093670719 0.077365223 0.12533221 0.060442159 0.083074091 0.054984777 0.061965212 0.086669753 0.065612145 0.0032298112
0.46492757 0.50599689 0.57274747 0.51675065 0.51725614 0.51176246 0.44605113 0.46327016 0.47779571 0.50613804 0.52307572 0.49089689 0.55358738 0.57940421 0.5108784000000001 0.57680163 0.55857759 0.54380342 0.54597403 0.45310459 0.47026043 0.51533453 0.39092365 0.40203223 0.39944293 0.33478044 0.39259157 0.28207243 0.31198979 0.34734552 0.35167915 0.51548996 0.60228285 0.65119116 0.63261702 0.4099852 0.36886411 0.31356913 0.13937583 0.093670719 0.077365223 0.12533221 0.060442159 0.083074091 0.054984777 0.061965212 0.086669753 0.065612145 0.0032298112 0.10953369
0.50599689 0.57274747 0.51675065 0.51725614 0.51176246 0.44605113 0.46327016 0.47779571 0.50613804 0.52307572 0.49089689 0.55358738 0.57940421 0.5108784000000001 0.57680163 0.55857759 0.54380342 0.54597403 0.45310459 0.47026043 0.51533453 0.39092365 0.40203223 0.39944293 0.33478044 0.39259157 0.28207243 0.31198979 0.34734552 0.35167915 0.51548996 0.60228285 0.65119116 0.63261702 0.4099852 0.36886411 0.31356913 0.13937583 0.093670719 0.077365223 0.12533221 0.060442159 0.083074091 0.054984777 0.061965212 0.086669753 0.065612145 0.0032298112 0.10953369 0.060000817000000005
0.57274747 0.51675065 0.51725614 0.51176246 0.44605113 0.46327016 0.47779571 0.50613804 0.52307572 0.49089689 0.55358738 0.57940421 0.5108784000000001 0.57680163 0.55857759 0.54380342 0.54597403 0.45310459 0.47026043 0.51533453 0.39092365 0.40203223 0.39944293 0.33478044 0.39259157 0.28207243 0.31198979 0.34734552 0.35167915 0.51548996 0.60228285 0.65119116 0.63261702 0.4099852 0.36886411 0.31356913 0.13937583 0.093670719 0.077365223 0.12533221 0.060442159 0.083074091 0.054984777 0.061965212 0.086669753 0.065612145 0.0032298112 0.10953369 0.060000817000000005 0.040453145
0.51675065 0.51725614 0.51176246 0.44605113 0.46327016 0.47779571 0.50613804 0.52307572 0.49089689 0.55358738 0.57940421 0.5108784000000001 0.57680163 0.55857759 0.54380342 0.54597403 0.45310459 0.47026043 0.51533453 0.39092365 0.40203223 0.39944293 0.33478044 0.39259157 0.28207243 0.31198979 0.34734552 0.35167915 0.51548996 0.60228285 0.65119116 0.63261702 0.4099852 0.36886411 0.31356913 0.13937583 0.093670719 0.077365223 0.12533221 0.060442159 0.083074091 0.054984777 0.061965212 0.086669753 0.065612145 0.0032298112 0.10953369 0.060000817000000005 0.040453145 0.069218255
0.51725614 0.51176246 0.44605113 0.46327016 0.47779571 0.50613804 0.52307572 0.49089689 0.55358738 0.57940421 0.5108784000000001 0.57680163 0.55857759 0.54380342 0.54597403 0.45310459 0.47026043 0.51533453 0.39092365 0.40203223 0.39944293 0.33478044 0.39259157 0.28207243 0.31198979 0.34734552 0.35167915 0.51548996 0.60228285 0.65119116 0.63261702 0.4099852 0.36886411 0.31356913 0.13937583 0.093670719 0.077365223 0.12533221 0.060442159 0.083074091 0.054984777 0.061965212 0.086669753 0.065612145 0.0032298112 0.10953369 0.060000817000000005 0.040453145 0.069218255 0.17855007
0.51176246 0.44605113 0.46327016 0.47779571 0.50613804 0.52307572 0.49089689 0.55358738 0.57940421 0.5108784000000001 0.57680163 0.55857759 0.54380342 0.54597403 0.45310459 0.47026043 0.51533453 0.39092365 0.40203223 0.39944293 0.33478044 0.39259157 0.28207243 0.31198979 0.34734552 0.35167915 0.51548996 0.60228285 0.65119116 0.63261702 0.4099852 0.36886411 0.31356913 0.13937583 0.093670719 0.077365223 0.12533221 0.060442159 0.083074091 0.054984777 0.061965212 0.086669753 0.065612145 0.0032298112 0.10953369 0.060000817000000005 0.040453145 0.069218255 0.17855007 0.45654674
