0.20303954 0.4620785 0.74836772 0.99695917 0.99855221 0.84949403 0.87570482 1.0092908999999999 0.80806681 0.16128675 -0.41905794 -0.45015898 -0.21226069 -0.33518908 -0.74453609 -0.84187552 -0.59821278 -0.46744349 -0.54607648 -0.69481032 -0.85633856 -0.90661027 -0.85141067 -0.7671981 -0.50010025 -0.2679663 -0.61161333 -1.1419276000000003 -1.1068337 -0.91681409 -1.1133568 -1.1243013000000002 -0.63091696 -0.41757296 -0.83858138 -1.1334201000000002 -0.92595138 -0.8273845 -1.096835 -1.2912431999999998 -1.3831129999999998 -1.6018683999999999 -1.6551462 -1.4481861 -1.4093576 -1.5045071 -1.3606741000000002 -1.1107051000000001 -0.9906629000000001 -0.86473975
0.4620785 0.74836772 0.99695917 0.99855221 0.84949403 0.87570482 1.0092908999999999 0.80806681 0.16128675 -0.41905794 -0.45015898 -0.21226069 -0.33518908 -0.74453609 -0.84187552 -0.59821278 -0.46744349 -0.54607648 -0.69481032 -0.85633856 -0.90661027 -0.85141067 -0.7671981 -0.50010025 -0.2679663 -0.61161333 -1.1419276000000003 -1.1068337 -0.91681409 -1.1133568 -1.1243013000000002 -0.63091696 -0.41757296 -0.83858138 -1.1334201000000002 -0.92595138 -0.8273845 -1.096835 -1.2912431999999998 -1.3831129999999998 -1.6018683999999999 -1.6551462 -1.4481861 -1.4093576 -1.5045071 -1.3606741000000002 -1.1107051000000001 -0.9906629000000001 -0.86473975 -0.66534071
0.74836772 0.99695917 0.99855221 0.84949403 0.87570482 1.0092908999999999 0.80806681 0.16128675 -0.41905794 -0.45015898 -0.21226069 -0.33518908 -0.74453609 -0.84187552 -0.59821278 -0.46744349 -0.54607648 -0.69481032 -0.85633856 -0.90661027 -0.85141067 -0.7671981 -0.50010025 -0.2679663 -0.61161333 -1.1419276000000003 -1.1068337 -0.91681409 -1.1133568 -1.1243013000000002 -0.63091696 -0.41757296 -0.83858138 -1.1334201000000002 -0.92595138 -0.8273845 -1.096835 -1.2912431999999998 -1.3831129999999998 -1.6018683999999999 -1.6551462 -1.4481861 -1.4093576 -1.5045071 -1.3606741000000002 -1.1107051000000001 -0.9906629000000001 -0.86473975 -0.66534071 -0.53173869
0.99695917 0.99855221 0.84949403 0.87570482 1.0092908999999999 0.80806681 0.16128675 -0.41905794 -0.45015898 -0.21226069 -0.33518908 -0.74453609 -0.84187552 -0.59821278 -0.46744349 -0.54607648 -0.69481032 -0.85633856 -0.90661027 -0.85141067 -0.7671981 -0.50010025 -0.2679663 -0.61161333 -1.1419276000000003 -1.1068337 -0.91681409 -1.1133568 -1.1243013000000002 -0.63091696 -0.41757296 -0.83858138 -1.1334201000000002 -0.92595138 -0.8273845 -1.096835 -1.2912431999999998 -1.3831129999999998 -1.6018683999999999 -1.6551462 -1.4481861 -1.4093576 -1.5045071 -1.3606741000000002 -1.1107051000000001 -0.9906629000000001 -0.86473975 -0.66534071 -0.53173869 -0.45641170000000003
0.99855221 0.84949403 0.87570482 1.0092908999999999 0.80806681 0.16128675 -0.41905794 -0.45015898 -0.21226069 -0.33518908 -0.74453609 -0.84187552 -0.59821278 -0.46744349 -0.54607648 -0.69481032 -0.85633856 -0.90661027 -0.85141067 -0.7671981 -0.50010025 -0.2679663 -0.61161333 -1.1419276000000003 -1.1068337 -0.91681409 -1.1133568 -1.1243013000000002 -0.63091696 -0.41757296 -0.83858138 -1.1334201000000002 -0.92595138 -0.8273845 -1.096835 -1.2912431999999998 -1.3831129999999998 -1.6018683999999999 -1.6551462 -1.4481861 -1.4093576 -1.5045071 -1.3606741000000002 -1.1107051000000001 -0.9906629000000001 -0.86473975 -0.66534071 -0.53173869 -0.45641170000000003 -0.29351677
0.84949403 0.87570482 1.0092908999999999 0.80806681 0.16128675 -0.41905794 -0.45015898 -0.21226069 -0.33518908 -0.74453609 -0.84187552 -0.59821278 -0.46744349 -0.54607648 -0.69481032 -0.85633856 -0.90661027 -0.85141067 -0.7671981 -0.50010025 -0.2679663 -0.61161333 -1.1419276000000003 -1.1068337 -0.91681409 -1.1133568 -1.1243013000000002 -0.63091696 -0.41757296 -0.83858138 -1.1334201000000002 -0.92595138 -0.8273845 -1.096835 -1.2912431999999998 -1.3831129999999998 -1.6018683999999999 -1.6551462 -1.4481861 -1.4093576 -1.5045071 -1.3606741000000002 -1.1107051000000001 -0.9906629000000001 -0.86473975 -0.66534071 -0.53173869 -0.45641170000000003 -0.29351677 -0.048334569
0.87570482 1.0092908999999999 0.80806681 0.16128675 -0.41905794 -0.45015898 -0.21226069 -0.33518908 -0.74453609 -0.84187552 -0.59821278 -0.46744349 -0.54607648 -0.69481032 -0.85633856 -0.90661027 -0.85141067 -0.7671981 -0.50010025 -0.2679663 -0.61161333 -1.1419276000000003 -1.1068337 -0.91681409 -1.1133568 -1.1243013000000002 -0.63091696 -0.41757296 -0.83858138 -1.1334201000000002 -0.92595138 -0.8273845 -1.096835 -1.2912431999999998 -1.3831129999999998 -1.6018683999999999 -1.6551462 -1.4481861 -1.4093576 -1.5045071 -1.3606741000000002 -1.1107051000000001 -0.9906629000000001 -0.86473975 -0.66534071 -0.53173869 -0.45641170000000003 -0.29351677 -0.048334569 0.1432135
1.0092908999999999 0.80806681 0.16128675 -0.41905794 -0.45015898 -0.21226069 -0.33518908 -0.74453609 -0.84187552 -0.59821278 -0.46744349 -0.54607648 -0.69481032 -0.85633856 -0.90661027 -0.85141067 -0.7671981 -0.50010025 -0.2679663 -0.61161333 -1.1419276000000003 -1.1068337 -0.91681409 -1.1133568 -1.1243013000000002 -0.63091696 -0.41757296 -0.83858138 -1.1334201000000002 -0.92595138 -0.8273845 -1.096835 -1.2912431999999998 -1.3831129999999998 -1.6018683999999999 -1.6551462 -1.4481861 -1.4093576 -1.5045071 -1.3606741000000002 -1.1107051000000001 -0.9906629000000001 -0.86473975 -0.66534071 -0.53173869 -0.45641170000000003 -0.29351677 -0.048334569 0.1432135 0.2684479
0.80806681 0.16128675 -0.41905794 -0.45015898 -0.21226069 -0.33518908 -0.74453609 -0.84187552 -0.59821278 -0.46744349 -0.54607648 -0.69481032 -0.85633856 -0.90661027 -0.85141067 -0.7671981 -0.50010025 -0.2679663 -0.61161333 -1.1419276000000003 -1.1068337 -0.91681409 -1.1133568 -1.1243013000000002 -0.63091696 -0.41757296 -0.83858138 -1.1334201000000002 -0.92595138 -0.8273845 -1.096835 -1.2912431999999998 -1.3831129999999998 -1.6018683999999999 -1.6551462 -1.4481861 -1.4093576 -1.5045071 -1.3606741000000002 -1.1107051000000001 -0.9906629000000001 -0.86473975 -0.66534071 -0.53173869 -0.45641170000000003 -0.29351677 -0.048334569 0.1432135 0.2684479 0.37448588
0.16128675 -0.41905794 -0.45015898 -0.21226069 -0.33518908 -0.74453609 -0.84187552 -0.59821278 -0.46744349 -0.54607648 -0.69481032 -0.85633856 -0.90661027 -0.85141067 -0.7671981 -0.50010025 -0.2679663 -0.61161333 -1.1419276000000003 -1.1068337 -0.91681409 -1.1133568 -1.1243013000000002 -0.63091696 -0.41757296 -0.83858138 -1.1334201000000002 -0.92595138 -0.8273845 -1.096835 -1.2912431999999998 -1.3831129999999998 -1.6018683999999999 -1.6551462 -1.4481861 -1.4093576 -1.5045071 -1.3606741000000002 -1.1107051000000001 -0.9906629000000001 -0.86473975 -0.66534071 -0.53173869 -0.45641170000000003 -0.29351677 -0.048334569 0.1432135 0.2684479 0.37448588 0.43712032
-0.41905794 -0.45015898 -0.21226069 -0.33518908 -0.74453609 -0.84187552 -0.59821278 -0.46744349 -0.54607648 -0.69481032 -0.85633856 -0.90661027 -0.85141067 -0.7671981 -0.50010025 -0.2679663 -0.61161333 -1.1419276000000003 -1.1068337 -0.91681409 -1.1133568 -1.1243013000000002 -0.63091696 -0.41757296 -0.83858138 -1.1334201000000002 -0.92595138 -0.8273845 -1.096835 -1.2912431999999998 -1.3831129999999998 -1.6018683999999999 -1.6551462 -1.4481861 -1.4093576 -1.5045071 -1.3606741000000002 -1.1107051000000001 -0.9906629000000001 -0.86473975 -0.66534071 -0.53173869 -0.45641170000000003 -0.29351677 -0.048334569 0.1432135 0.2684479 0.37448588 0.43712032 0.52029813
-0.45015898 -0.21226069 -0.33518908 -0.74453609 -0.84187552 -0.59821278 -0.46744349 -0.54607648 -0.69481032 -0.85633856 -0.90661027 -0.85141067 -0.7671981 -0.50010025 -0.2679663 -0.61161333 -1.1419276000000003 -1.1068337 -0.91681409 -1.1133568 -1.1243013000000002 -0.63091696 -0.41757296 -0.83858138 -1.1334201000000002 -0.92595138 -0.8273845 -1.096835 -1.2912431999999998 -1.3831129999999998 -1.6018683999999999 -1.6551462 -1.4481861 -1.4093576 -1.5045071 -1.3606741000000002 -1.1107051000000001 -0.9906629000000001 -0.86473975 -0.66534071 -0.53173869 -0.45641170000000003 -0.29351677 -0.048334569 0.1432135 0.2684479 0.37448588 0.43712032 0.52029813 0.64595463
-0.21226069 -0.33518908 -0.74453609 -0.84187552 -0.59821278 -0.46744349 -0.54607648 -0.69481032 -0.85633856 -0.90661027 -0.85141067 -0.7671981 -0.50010025 -0.2679663 -0.61161333 -1.1419276000000003 -1.1068337 -0.91681409 -1.1133568 -1.1243013000000002 -0.63091696 -0.41757296 -0.83858138 -1.1334201000000002 -0.92595138 -0.8273845 -1.096835 -1.2912431999999998 -1.3831129999999998 -1.6018683999999999 -1.6551462 -1.4481861 -1.4093576 -1.5045071 -1.3606741000000002 -1.1107051000000001 -0.9906629000000001 -0.86473975 -0.66534071 -0.53173869 -0.45641170000000003 -0.29351677 -0.048334569 0.1432135 0.2684479 0.37448588 0.43712032 0.52029813 0.64595463 0.62296152
-0.33518908 -0.74453609 -0.84187552 -0.59821278 -0.46744349 -0.54607648 -0.69481032 -0.85633856 -0.90661027 -0.85141067 -0.7671981 -0.50010025 -0.2679663 -0.61161333 -1.1419276000000003 -1.1068337 -0.91681409 -1.1133568 -1.1243013000000002 -0.63091696 -0.41757296 -0.83858138 -1.1334201000000002 -0.92595138 -0.8273845 -1.096835 -1.2912431999999998 -1.3831129999999998 -1.6018683999999999 -1.6551462 -1.4481861 -1.4093576 -1.5045071 -1.3606741000000002 -1.1107051000000001 -0.9906629000000001 -0.86473975 -0.66534071 -0.53173869 -0.45641170000000003 -0.29351677 -0.048334569 0.1432135 0.2684479 0.37448588 0.43712032 0.52029813 0.64595463 0.62296152 0.47560443
-0.74453609 -0.84187552 -0.59821278 -0.46744349 -0.54607648 -0.69481032 -0.85633856 -0.90661027 -0.85141067 -0.7671981 -0.50010025 -0.2679663 -0.61161333 -1.1419276000000003 -1.1068337 -0.91681409 -1.1133568 -1.1243013000000002 -0.63091696 -0.41757296 -0.83858138 -1.1334201000000002 -0.92595138 -0.8273845 -1.096835 -1.2912431999999998 -1.3831129999999998 -1.6018683999999999 -1.6551462 -1.4481861 -1.4093576 -1.5045071 -1.3606741000000002 -1.1107051000000001 -0.9906629000000001 -0.86473975 -0.66534071 -0.53173869 -0.45641170000000003 -0.29351677 -0.048334569 0.1432135 0.2684479 0.37448588 0.43712032 0.52029813 0.64595463 0.62296152 0.47560443 0.46532114
-0.84187552 -0.59821278 -0.46744349 -0.54607648 -0.69481032 -0.85633856 -0.90661027 -0.85141067 -0.7671981 -0.50010025 -0.2679663 -0.61161333 -1.1419276000000003 -1.1068337 -0.91681409 -1.1133568 -1.1243013000000002 -0.63091696 -0.41757296 -0.83858138 -1.1334201000000002 -0.92595138 -0.8273845 -1.096835 -1.2912431999999998 -1.3831129999999998 -1.6018683999999999 -1.6551462 -1.4481861 -1.4093576 -1.5045071 -1.3606741000000002 -1.1107051000000001 -0.9906629000000001 -0.86473975 -0.66534071 -0.53173869 -0.45641170000000003 -0.29351677 -0.048334569 0.1432135 0.2684479 0.37448588 0.43712032 0.52029813 0.64595463 0.62296152 0.47560443 0.46532114 0.51372922
-0.59821278 -0.46744349 -0.54607648 -0.69481032 -0.85633856 -0.90661027 -0.85141067 -0.7671981 -0.50010025 -0.2679663 -0.61161333 -1.1419276000000003 -1.1068337 -0.91681409 -1.1133568 -1.1243013000000002 -0.63091696 -0.41757296 -0.83858138 -1.1334201000000002 -0.92595138 -0.8273845 -1.096835 -1.2912431999999998 -1.3831129999999998 -1.6018683999999999 -1.6551462 -1.4481861 -1.4093576 -1.5045071 -1.3606741000000002 -1.1107051000000001 -0.9906629000000001 -0.86473975 -0.66534071 -0.53173869 -0.45641170000000003 -0.29351677 -0.048334569 0.1432135 0.2684479 0.37448588 0.43712032 0.52029813 0.64595463 0.62296152 0.47560443 0.46532114 0.51372922 0.43557245
-0.46744349 -0.54607648 -0.69481032 -0.85633856 -0.90661027 -0.85141067 -0.7671981 -0.50010025 -0.2679663 -0.61161333 -1.1419276000000003 -1.1068337 -0.91681409 -1.1133568 -1.1243013000000002 -0.63091696 -0.41757296 -0.83858138 -1.1334201000000002 -0.92595138 -0.8273845 -1.096835 -1.2912431999999998 -1.3831129999999998 -1.6018683999999999 -1.6551462 -1.4481861 -1.4093576 -1.5045071 -1.3606741000000002 -1.1107051000000001 -0.9906629000000001 -0.86473975 -0.66534071 -0.53173869 -0.45641170000000003 -0.29351677 -0.048334569 0.1432135 0.2684479 0.37448588 0.43712032 0.52029813 0.64595463 0.62296152 0.47560443 0.46532114 0.51372922 0.43557245 0.41166962
-0.54607648 -0.69481032 -0.85633856 -0.90661027 -0.85141067 -0.7671981 -0.50010025 -0.2679663 -0.61161333 -1.1419276000000003 -1.1068337 -0.91681409 -1.1133568 -1.1243013000000002 -0.63091696 -0.41757296 -0.83858138 -1.1334201000000002 -0.92595138 -0.8273845 -1.096835 -1.2912431999999998 -1.3831129999999998 -1.6018683999999999 -1.6551462 -1.4481861 -1.4093576 -1.5045071 -1.3606741000000002 -1.1107051000000001 -0.9906629000000001 -0.86473975 -0.66534071 -0.53173869 -0.45641170000000003 -0.29351677 -0.048334569 0.1432135 0.2684479 0.37448588 0.43712032 0.52029813 0.64595463 0.62296152 0.47560443 0.46532114 0.51372922 0.43557245 0.41166962 0.50660284
-0.69481032 -0.85633856 -0.90661027 -0.85141067 -0.7671981 -0.50010025 -0.2679663 -0.61161333 -1.1419276000000003 -1.1068337 -0.91681409 -1.1133568 -1.1243013000000002 -0.63091696 -0.41757296 -0.83858138 -1.1334201000000002 -0.92595138 -0.8273845 -1.096835 -1.2912431999999998 -1.3831129999999998 -1.6018683999999999 -1.6551462 -1.4481861 -1.4093576 -1.5045071 -1.3606741000000002 -1.1107051000000001 -0.9906629000000001 -0.86473975 -0.66534071 -0.53173869 -0.45641170000000003 -0.29351677 -0.048334569 0.1432135 0.2684479 0.37448588 0.43712032 0.52029813 0.64595463 0.62296152 0.47560443 0.46532114 0.51372922 0.43557245 0.41166962 0.50660284 0.4346806
-0.85633856 -0.90661027 -0.85141067 -0.7671981 -0.50010025 -0.2679663 -0.61161333 -1.1419276000000003 -1.1068337 -0.91681409 -1.1133568 -1.1243013000000002 -0.63091696 -0.41757296 -0.83858138 -1.1334201000000002 -0.92595138 -0.8273845 -1.096835 -1.2912431999999998 -1.3831129999999998 -1.6018683999999999 -1.6551462 -1.4481861 -1.4093576 -1.5045071 -1.3606741000000002 -1.1107051000000001 -0.9906629000000001 -0.86473975 -0.66534071 -0.53173869 -0.45641170000000003 -0.29351677 -0.048334569 0.1432135 0.2684479 0.37448588 0.43712032 0.52029813 0.64595463 0.62296152 0.47560443 0.46532114 0.51372922 0.43557245 0.41166962 0.50660284 0.4346806 0.21509747
-0.90661027 -0.85141067 -0.7671981 -0.50010025 -0.2679663 -0.61161333 -1.1419276000000003 -1.1068337 -0.91681409 -1.1133568 -1.1243013000000002 -0.63091696 -0.41757296 -0.83858138 -1.1334201000000002 -0.92595138 -0.8273845 -1.096835 -1.2912431999999998 -1.3831129999999998 -1.6018683999999999 -1.6551462 -1.4481861 -1.4093576 -1.5045071 -1.3606741000000002 -1.1107051000000001 -0.9906629000000001 -0.86473975 -0.66534071 -0.53173869 -0.45641170000000003 -0.29351677 -0.048334569 0.1432135 0.2684479 0.37448588 0.43712032 0.52029813 0.64595463 0.62296152 0.47560443 0.46532114 0.51372922 0.43557245 0.41166962 0.50660284 0.4346806 0.21509747 0.2123013
-0.85141067 -0.7671981 -0.50010025 -0.2679663 -0.61161333 -1.1419276000000003 -1.1068337 -0.91681409 -1.1133568 -1.1243013000000002 -0.63091696 -0.41757296 -0.83858138 -1.1334201000000002 -0.92595138 -0.8273845 -1.096835 -1.2912431999999998 -1.3831129999999998 -1.6018683999999999 -1.6551462 -1.4481861 -1.4093576 -1.5045071 -1.3606741000000002 -1.1107051000000001 -0.9906629000000001 -0.86473975 -0.66534071 -0.53173869 -0.45641170000000003 -0.29351677 -0.048334569 0.1432135 0.2684479 0.37448588 0.43712032 0.52029813 0.64595463 0.62296152 0.47560443 0.46532114 0.51372922 0.43557245 0.41166962 0.50660284 0.4346806 0.21509747 0.2123013 0.38697442
-0.7671981 -0.50010025 -0.2679663 -0.61161333 -1.1419276000000003 -1.1068337 -0.91681409 -1.1133568 -1.1243013000000002 -0.63091696 -0.41757296 -0.83858138 -1.1334201000000002 -0.92595138 -0.8273845 -1.096835 -1.2912431999999998 -1.3831129999999998 -1.6018683999999999 -1.6551462 -1.4481861 -1.4093576 -1.5045071 -1.3606741000000002 -1.1107051000000001 -0.9906629000000001 -0.86473975 -0.66534071 -0.53173869 -0.45641170000000003 -0.29351677 -0.048334569 0.1432135 0.2684479 0.37448588 0.43712032 0.52029813 0.64595463 0.62296152 0.47560443 0.46532114 0.51372922 0.43557245 0.41166962 0.50660284 0.4346806 0.21509747 0.2123013 0.38697442 0.33385625
-0.50010025 -0.2679663 -0.61161333 -1.1419276000000003 -1.1068337 -0.91681409 -1.1133568 -1.1243013000000002 -0.63091696 -0.41757296 -0.83858138 -1.1334201000000002 -0.92595138 -0.8273845 -1.096835 -1.2912431999999998 -1.3831129999999998 -1.6018683999999999 -1.6551462 -1.4481861 -1.4093576 -1.5045071 -1.3606741000000002 -1.1107051000000001 -0.9906629000000001 -0.86473975 -0.66534071 -0.53173869 -0.45641170000000003 -0.29351677 -0.048334569 0.1432135 0.2684479 0.37448588 0.43712032 0.52029813 0.64595463 0.62296152 0.47560443 0.46532114 0.51372922 0.43557245 0.41166962 0.50660284 0.4346806 0.21509747 0.2123013 0.38697442 0.33385625 0.11874715
-0.2679663 -0.61161333 -1.1419276000000003 -1.1068337 -0.91681409 -1.1133568 -1.1243013000000002 -0.63091696 -0.41757296 -0.83858138 -1.1334201000000002 -0.92595138 -0.8273845 -1.096835 -1.2912431999999998 -1.3831129999999998 -1.6018683999999999 -1.6551462 -1.4481861 -1.4093576 -1.5045071 -1.3606741000000002 -1.1107051000000001 -0.9906629000000001 -0.86473975 -0.66534071 -0.53173869 -0.45641170000000003 -0.29351677 -0.048334569 0.1432135 0.2684479 0.37448588 0.43712032 0.52029813 0.64595463 0.62296152 0.47560443 0.46532114 0.51372922 0.43557245 0.41166962 0.50660284 0.4346806 0.21509747 0.2123013 0.38697442 0.33385625 0.11874715 0.19977383
-0.61161333 -1.1419276000000003 -1.1068337 -0.91681409 -1.1133568 -1.1243013000000002 -0.63091696 -0.41757296 -0.83858138 -1.1334201000000002 -0.92595138 -0.8273845 -1.096835 -1.2912431999999998 -1.3831129999999998 -1.6018683999999999 -1.6551462 -1.4481861 -1.4093576 -1.5045071 -1.3606741000000002 -1.1107051000000001 -0.9906629000000001 -0.86473975 -0.66534071 -0.53173869 -0.45641170000000003 -0.29351677 -0.048334569 0.1432135 0.2684479 0.37448588 0.43712032 0.52029813 0.64595463 0.62296152 0.47560443 0.46532114 0.51372922 0.43557245 0.41166962 0.50660284 0.4346806 0.21509747 0.2123013 0.38697442 0.33385625 0.11874715 0.19977383 0.47825397
-1.1419276000000003 -1.1068337 -0.91681409 -1.1133568 -1.1243013000000002 -0.63091696 -0.41757296 -0.83858138 -1.1334201000000002 -0.92595138 -0.8273845 -1.096835 -1.2912431999999998 -1.3831129999999998 -1.6018683999999999 -1.6551462 -1.4481861 -1.4093576 -1.5045071 -1.3606741000000002 -1.1107051000000001 -0.9906629000000001 -0.86473975 -0.66534071 -0.53173869 -0.45641170000000003 -0.29351677 -0.048334569 0.1432135 0.2684479 0.37448588 0.43712032 0.52029813 0.64595463 0.62296152 0.47560443 0.46532114 0.51372922 0.43557245 0.41166962 0.50660284 0.4346806 0.21509747 0.2123013 0.38697442 0.33385625 0.11874715 0.19977383 0.47825397 0.52159962
-1.1068337 -0.91681409 -1.1133568 -1.1243013000000002 -0.63091696 -0.41757296 -0.83858138 -1.1334201000000002 -0.92595138 -0.8273845 -1.096835 -1.2912431999999998 -1.3831129999999998 -1.6018683999999999 -1.6551462 -1.4481861 -1.4093576 -1.5045071 -1.3606741000000002 -1.1107051000000001 -0.9906629000000001 -0.86473975 -0.66534071 -0.53173869 -0.45641170000000003 -0.29351677 -0.048334569 0.1432135 0.2684479 0.37448588 0.43712032 0.52029813 0.64595463 0.62296152 0.47560443 0.46532114 0.51372922 0.43557245 0.41166962 0.50660284 0.4346806 0.21509747 0.2123013 0.38697442 0.33385625 0.11874715 0.19977383 0.47825397 0.52159962 0.41185944
-0.91681409 -1.1133568 -1.1243013000000002 -0.63091696 -0.41757296 -0.83858138 -1.1334201000000002 -0.92595138 -0.8273845 -1.096835 -1.2912431999999998 -1.3831129999999998 -1.6018683999999999 -1.6551462 -1.4481861 -1.4093576 -1.5045071 -1.3606741000000002 -1.1107051000000001 -0.9906629000000001 -0.86473975 -0.66534071 -0.53173869 -0.45641170000000003 -0.29351677 -0.048334569 0.1432135 0.2684479 0.37448588 0.43712032 0.52029813 0.64595463 0.62296152 0.47560443 0.46532114 0.51372922 0.43557245 0.41166962 0.50660284 0.4346806 0.21509747 0.2123013 0.38697442 0.33385625 0.11874715 0.19977383 0.47825397 0.52159962 0.41185944 0.33925708
-1.1133568 -1.1243013000000002 -0.63091696 -0.41757296 -0.83858138 -1.1334201000000002 -0.92595138 -0.8273845 -1.096835 -1.2912431999999998 -1.3831129999999998 -1.6018683999999999 -1.6551462 -1.4481861 -1.4093576 -1.5045071 -1.3606741000000002 -1.1107051000000001 -0.9906629000000001 -0.86473975 -0.66534071 -0.53173869 -0.45641170000000003 -0.29351677 -0.048334569 0.1432135 0.2684479 0.37448588 0.43712032 0.52029813 0.64595463 0.62296152 0.47560443 0.46532114 0.51372922 0.43557245 0.41166962 0.50660284 0.4346806 0.21509747 0.2123013 0.38697442 0.33385625 0.11874715 0.19977383 0.47825397 0.52159962 0.41185944 0.33925708 0.23283070000000003
-1.1243013000000002 -0.63091696 -0.41757296 -0.83858138 -1.1334201000000002 -0.92595138 -0.8273845 -1.096835 -1.2912431999999998 -1.3831129999999998 -1.6018683999999999 -1.6551462 -1.4481861 -1.4093576 -1.5045071 -1.3606741000000002 -1.1107051000000001 -0.9906629000000001 -0.86473975 -0.66534071 -0.53173869 -0.45641170000000003 -0.29351677 -0.048334569 0.1432135 0.2684479 0.37448588 0.43712032 0.52029813 0.64595463 0.62296152 0.47560443 0.46532114 0.51372922 0.43557245 0.41166962 0.50660284 0.4346806 0.21509747 0.2123013 0.38697442 0.33385625 0.11874715 0.19977383 0.47825397 0.52159962 0.41185944 0.33925708 0.23283070000000003 0.25209581
-0.63091696 -0.41757296 -0.83858138 -1.1334201000000002 -0.92595138 -0.8273845 -1.096835 -1.2912431999999998 -1.3831129999999998 -1.6018683999999999 -1.6551462 -1.4481861 -1.4093576 -1.5045071 -1.3606741000000002 -1.1107051000000001 -0.9906629000000001 -0.86473975 -0.66534071 -0.53173869 -0.45641170000000003 -0.29351677 -0.048334569 0.1432135 0.2684479 0.37448588 0.43712032 0.52029813 0.64595463 0.62296152 0.47560443 0.46532114 0.51372922 0.43557245 0.41166962 0.50660284 0.4346806 0.21509747 0.2123013 0.38697442 0.33385625 0.11874715 0.19977383 0.47825397 0.52159962 0.41185944 0.33925708 0.23283070000000003 0.25209581 0.43315453
-0.41757296 -0.83858138 -1.1334201000000002 -0.92595138 -0.8273845 -1.096835 -1.2912431999999998 -1.3831129999999998 -1.6018683999999999 -1.6551462 -1.4481861 -1.4093576 -1.5045071 -1.3606741000000002 -1.1107051000000001 -0.9906629000000001 -0.86473975 -0.66534071 -0.53173869 -0.45641170000000003 -0.29351677 -0.048334569 0.1432135 0.2684479 0.37448588 0.43712032 0.52029813 0.64595463 0.62296152 0.47560443 0.46532114 0.51372922 0.43557245 0.41166962 0.50660284 0.4346806 0.21509747 0.2123013 0.38697442 0.33385625 0.11874715 0.19977383 0.47825397 0.52159962 0.41185944 0.33925708 0.23283070000000003 0.25209581 0.43315453 0.35764047
-0.83858138 -1.1334201000000002 -0.92595138 -0.8273845 -1.096835 -1.2912431999999998 -1.3831129999999998 -1.6018683999999999 -1.6551462 -1.4481861 -1.4093576 -1.5045071 -1.3606741000000002 -1.1107051000000001 -0.9906629000000001 -0.86473975 -0.66534071 -0.53173869 -0.45641170000000003 -0.29351677 -0.048334569 0.1432135 0.2684479 0.37448588 0.43712032 0.52029813 0.64595463 0.62296152 0.47560443 0.46532114 0.51372922 0.43557245 0.41166962 0.50660284 0.4346806 0.21509747 0.2123013 0.38697442 0.33385625 0.11874715 0.19977383 0.47825397 0.52159962 0.41185944 0.33925708 0.23283070000000003 0.25209581 0.43315453 0.35764047 0.17873833
-1.1334201000000002 -0.92595138 -0.8273845 -1.096835 -1.2912431999999998 -1.3831129999999998 -1.6018683999999999 -1.6551462 -1.4481861 -1.4093576 -1.5045071 -1.3606741000000002 -1.1107051000000001 -0.9906629000000001 -0.86473975 -0.66534071 -0.53173869 -0.45641170000000003 -0.29351677 -0.048334569 0.1432135 0.2684479 0.37448588 0.43712032 0.52029813 0.64595463 0.62296152 0.47560443 0.46532114 0.51372922 0.43557245 0.41166962 0.50660284 0.4346806 0.21509747 0.2123013 0.38697442 0.33385625 0.11874715 0.19977383 0.47825397 0.52159962 0.41185944 0.33925708 0.23283070000000003 0.25209581 0.43315453 0.35764047 0.17873833 0.37737192
-0.92595138 -0.8273845 -1.096835 -1.2912431999999998 -1.3831129999999998 -1.6018683999999999 -1.6551462 -1.4481861 -1.4093576 -1.5045071 -1.3606741000000002 -1.1107051000000001 -0.9906629000000001 -0.86473975 -0.66534071 -0.53173869 -0.45641170000000003 -0.29351677 -0.048334569 0.1432135 0.2684479 0.37448588 0.43712032 0.52029813 0.64595463 0.62296152 0.47560443 0.46532114 0.51372922 0.43557245 0.41166962 0.50660284 0.4346806 0.21509747 0.2123013 0.38697442 0.33385625 0.11874715 0.19977383 0.47825397 0.52159962 0.41185944 0.33925708 0.23283070000000003 0.25209581 0.43315453 0.35764047 0.17873833 0.37737192 0.5720518
-0.8273845 -1.096835 -1.2912431999999998 -1.3831129999999998 -1.6018683999999999 -1.6551462 -1.4481861 -1.4093576 -1.5045071 -1.3606741000000002 -1.1107051000000001 -0.9906629000000001 -0.86473975 -0.66534071 -0.53173869 -0.45641170000000003 -0.29351677 -0.048334569 0.1432135 0.2684479 0.37448588 0.43712032 0.52029813 0.64595463 0.62296152 0.47560443 0.46532114 0.51372922 0.43557245 0.41166962 0.50660284 0.4346806 0.21509747 0.2123013 0.38697442 0.33385625 0.11874715 0.19977383 0.47825397 0.52159962 0.41185944 0.33925708 0.23283070000000003 0.25209581 0.43315453 0.35764047 0.17873833 0.37737192 0.5720518 0.49869164
-1.096835 -1.2912431999999998 -1.3831129999999998 -1.6018683999999999 -1.6551462 -1.4481861 -1.4093576 -1.5045071 -1.3606741000000002 -1.1107051000000001 -0.9906629000000001 -0.86473975 -0.66534071 -0.53173869 -0.45641170000000003 -0.29351677 -0.048334569 0.1432135 0.2684479 0.37448588 0.43712032 0.52029813 0.64595463 0.62296152 0.47560443 0.46532114 0.51372922 0.43557245 0.41166962 0.50660284 0.4346806 0.21509747 0.2123013 0.38697442 0.33385625 0.11874715 0.19977383 0.47825397 0.52159962 0.41185944 0.33925708 0.23283070000000003 0.25209581 0.43315453 0.35764047 0.17873833 0.37737192 0.5720518 0.49869164 0.74312635
-1.2912431999999998 -1.3831129999999998 -1.6018683999999999 -1.6551462 -1.4481861 -1.4093576 -1.5045071 -1.3606741000000002 -1.1107051000000001 -0.9906629000000001 -0.86473975 -0.66534071 -0.53173869 -0.45641170000000003 -0.29351677 -0.048334569 0.1432135 0.2684479 0.37448588 0.43712032 0.52029813 0.64595463 0.62296152 0.47560443 0.46532114 0.51372922 0.43557245 0.41166962 0.50660284 0.4346806 0.21509747 0.2123013 0.38697442 0.33385625 0.11874715 0.19977383 0.47825397 0.52159962 0.41185944 0.33925708 0.23283070000000003 0.25209581 0.43315453 0.35764047 0.17873833 0.37737192 0.5720518 0.49869164 0.74312635 1.3640378
-1.3831129999999998 -1.6018683999999999 -1.6551462 -1.4481861 -1.4093576 -1.5045071 -1.3606741000000002 -1.1107051000000001 -0.9906629000000001 -0.86473975 -0.66534071 -0.53173869 -0.45641170000000003 -0.29351677 -0.048334569 0.1432135 0.2684479 0.37448588 0.43712032 0.52029813 0.64595463 0.62296152 0.47560443 0.46532114 0.51372922 0.43557245 0.41166962 0.50660284 0.4346806 0.21509747 0.2123013 0.38697442 0.33385625 0.11874715 0.19977383 0.47825397 0.52159962 0.41185944 0.33925708 0.23283070000000003 0.25209581 0.43315453 0.35764047 0.17873833 0.37737192 0.5720518 0.49869164 0.74312635 1.3640378 1.9802452000000001
-1.6018683999999999 -1.6551462 -1.4481861 -1.4093576 -1.5045071 -1.3606741000000002 -1.1107051000000001 -0.9906629000000001 -0.86473975 -0.66534071 -0.53173869 -0.45641170000000003 -0.29351677 -0.048334569 0.1432135 0.2684479 0.37448588 0.43712032 0.52029813 0.64595463 0.62296152 0.47560443 0.46532114 0.51372922 0.43557245 0.41166962 0.50660284 0.4346806 0.21509747 0.2123013 0.38697442 0.33385625 0.11874715 0.19977383 0.47825397 0.52159962 0.41185944 0.33925708 0.23283070000000003 0.25209581 0.43315453 0.35764047 0.17873833 0.37737192 0.5720518 0.49869164 0.74312635 1.3640378 1.9802452000000001 2.7125249
-1.6551462 -1.4481861 -1.4093576 -1.5045071 -1.3606741000000002 -1.1107051000000001 -0.9906629000000001 -0.86473975 -0.66534071 -0.53173869 -0.45641170000000003 -0.29351677 -0.048334569 0.1432135 0.2684479 0.37448588 0.43712032 0.52029813 0.64595463 0.62296152 0.47560443 0.46532114 0.51372922 0.43557245 0.41166962 0.50660284 0.4346806 0.21509747 0.2123013 0.38697442 0.33385625 0.11874715 0.19977383 0.47825397 0.52159962 0.41185944 0.33925708 0.23283070000000003 0.25209581 0.43315453 0.35764047 0.17873833 0.37737192 0.5720518 0.49869164 0.74312635 1.3640378 1.9802452000000001 2.7125249 3.2698816
-1.4481861 -1.4093576 -1.5045071 -1.3606741000000002 -1.1107051000000001 -0.9906629000000001 -0.86473975 -0.66534071 -0.53173869 -0.45641170000000003 -0.29351677 -0.048334569 0.1432135 0.2684479 0.37448588 0.43712032 0.52029813 0.64595463 0.62296152 0.47560443 0.46532114 0.51372922 0.43557245 0.41166962 0.50660284 0.4346806 0.21509747 0.2123013 0.38697442 0.33385625 0.11874715 0.19977383 0.47825397 0.52159962 0.41185944 0.33925708 0.23283070000000003 0.25209581 0.43315453 0.35764047 0.17873833 0.37737192 0.5720518 0.49869164 0.74312635 1.3640378 1.9802452000000001 2.7125249 3.2698816 3.070404
-1.4093576 -1.5045071 -1.3606741000000002 -1.1107051000000001 -0.9906629000000001 -0.86473975 -0.66534071 -0.53173869 -0.45641170000000003 -0.29351677 -0.048334569 0.1432135 0.2684479 0.37448588 0.43712032 0.52029813 0.64595463 0.62296152 0.47560443 0.46532114 0.51372922 0.43557245 0.41166962 0.50660284 0.4346806 0.21509747 0.2123013 0.38697442 0.33385625 0.11874715 0.19977383 0.47825397 0.52159962 0.41185944 0.33925708 0.23283070000000003 0.25209581 0.43315453 0.35764047 0.17873833 0.37737192 0.5720518 0.49869164 0.74312635 1.3640378 1.9802452000000001 2.7125249 3.2698816 3.070404 2.5160158999999997
-1.5045071 -1.3606741000000002 -1.1107051000000001 -0.9906629000000001 -0.86473975 -0.66534071 -0.53173869 -0.45641170000000003 -0.29351677 -0.048334569 0.1432135 0.2684479 0.37448588 0.43712032 0.52029813 0.64595463 0.62296152 0.47560443 0.46532114 0.51372922 0.43557245 0.41166962 0.50660284 0.4346806 0.21509747 0.2123013 0.38697442 0.33385625 0.11874715 0.19977383 0.47825397 0.52159962 0.41185944 0.33925708 0.23283070000000003 0.25209581 0.43315453 0.35764047 0.17873833 0.37737192 0.5720518 0.49869164 0.74312635 1.3640378 1.9802452000000001 2.7125249 3.2698816 3.070404 2.5160158999999997 1.9308802999999999
-1.3606741000000002 -1.1107051000000001 -0.9906629000000001 -0.86473975 -0.66534071 -0.53173869 -0.45641170000000003 -0.29351677 -0.048334569 0.1432135 0.2684479 0.37448588 0.43712032 0.52029813 0.64595463 0.62296152 0.47560443 0.46532114 0.51372922 0.43557245 0.41166962 0.50660284 0.4346806 0.21509747 0.2123013 0.38697442 0.33385625 0.11874715 0.19977383 0.47825397 0.52159962 0.41185944 0.33925708 0.23283070000000003 0.25209581 0.43315453 0.35764047 0.17873833 0.37737192 0.5720518 0.49869164 0.74312635 1.3640378 1.9802452000000001 2.7125249 3.2698816 3.070404 2.5160158999999997 1.9308802999999999 0.88438617
