0.15058441 1.656594 2.7067667 2.6687049 2.1616487 0.45358164 -1.1248073 -0.035755804 0.71933982 0.16920057 0.52592483 0.64460189 -0.032198206 -0.65313136 -0.64744008 -0.99854648 -0.98739107 -1.2347708999999998 -1.1688943 -1.132583 -1.2814418 -1.2022795 -1.3473458 -1.4705966000000001 -1.6609083999999998 -1.7332526000000001 -1.6761992 -1.7228702 -1.9567843 -2.0945013 -1.9965956000000002 -1.8874305 -1.9523264999999999 -1.5933899 -1.4014487 -1.3560128999999999 -0.95886457 -0.48330417 -0.044625343 0.13144175 0.34893485 0.65345523 0.92827746 0.90349566 0.97048627 1.0221354 1.0770498 0.97306995 0.92998056 0.84903207
1.656594 2.7067667 2.6687049 2.1616487 0.45358164 -1.1248073 -0.035755804 0.71933982 0.16920057 0.52592483 0.64460189 -0.032198206 -0.65313136 -0.64744008 -0.99854648 -0.98739107 -1.2347708999999998 -1.1688943 -1.132583 -1.2814418 -1.2022795 -1.3473458 -1.4705966000000001 -1.6609083999999998 -1.7332526000000001 -1.6761992 -1.7228702 -1.9567843 -2.0945013 -1.9965956000000002 -1.8874305 -1.9523264999999999 -1.5933899 -1.4014487 -1.3560128999999999 -0.95886457 -0.48330417 -0.044625343 0.13144175 0.34893485 0.65345523 0.92827746 0.90349566 0.97048627 1.0221354 1.0770498 0.97306995 0.92998056 0.84903207 0.76882158
2.7067667 2.6687049 2.1616487 0.45358164 -1.1248073 -0.035755804 0.71933982 0.16920057 0.52592483 0.64460189 -0.032198206 -0.65313136 -0.64744008 -0.99854648 -0.98739107 -1.2347708999999998 -1.1688943 -1.132583 -1.2814418 -1.2022795 -1.3473458 -1.4705966000000001 -1.6609083999999998 -1.7332526000000001 -1.6761992 -1.7228702 -1.9567843 -2.0945013 -1.9965956000000002 -1.8874305 -1.9523264999999999 -1.5933899 -1.4014487 -1.3560128999999999 -0.95886457 -0.48330417 -0.044625343 0.13144175 0.34893485 0.65345523 0.92827746 0.90349566 0.97048627 1.0221354 1.0770498 0.97306995 0.92998056 0.84903207 0.76882158 0.75621834
2.6687049 2.1616487 0.45358164 -1.1248073 -0.035755804 0.71933982 0.16920057 0.52592483 0.64460189 -0.032198206 -0.65313136 -0.64744008 -0.99854648 -0.98739107 -1.2347708999999998 -1.1688943 -1.132583 -1.2814418 -1.2022795 -1.3473458 -1.4705966000000001 -1.6609083999999998 -1.7332526000000001 -1.6761992 -1.7228702 -1.9567843 -2.0945013 -1.9965956000000002 -1.8874305 -1.9523264999999999 -1.5933899 -1.4014487 -1.3560128999999999 -0.95886457 -0.48330417 -0.044625343 0.13144175 0.34893485 0.65345523 0.92827746 0.90349566 0.97048627 1.0221354 1.0770498 0.97306995 0.92998056 0.84903207 0.76882158 0.75621834 0.65609937
2.1616487 0.45358164 -1.1248073 -0.035755804 0.71933982 0.16920057 0.52592483 0.64460189 -0.032198206 -0.65313136 -0.64744008 -0.99854648 -0.98739107 -1.2347708999999998 -1.1688943 -1.132583 -1.2814418 -1.2022795 -1.3473458 -1.4705966000000001 -1.6609083999999998 -1.7332526000000001 -1.6761992 -1.7228702 -1.9567843 -2.0945013 -1.9965956000000002 -1.8874305 -1.9523264999999999 -1.5933899 -1.4014487 -1.3560128999999999 -0.95886457 -0.48330417 -0.044625343 0.13144175 0.34893485 0.65345523 0.92827746 0.90349566 0.97048627 1.0221354 1.0770498 0.97306995 0.92998056 0.84903207 0.76882158 0.75621834 0.65609937 0.81248661
0.45358164 -1.1248073 -0.035755804 0.71933982 0.16920057 0.52592483 0.64460189 -0.032198206 -0.65313136 -0.64744008 -0.99854648 -0.98739107 -1.2347708999999998 -1.1688943 -1.132583 -1.2814418 -1.2022795 -1.3473458 -1.4705966000000001 -1.6609083999999998 -1.7332526000000001 -1.6761992 -1.7228702 -1.9567843 -2.0945013 -1.9965956000000002 -1.8874305 -1.9523264999999999 -1.5933899 -1.4014487 -1.3560128999999999 -0.95886457 -0.48330417 -0.044625343 0.13144175 0.34893485 0.65345523 0.92827746 0.90349566 0.97048627 1.0221354 1.0770498 0.97306995 0.92998056 0.84903207 0.76882158 0.75621834 0.65609937 0.81248661 0.724854
-1.1248073 -0.035755804 0.71933982 0.16920057 0.52592483 0.64460189 -0.032198206 -0.65313136 -0.64744008 -0.99854648 -0.98739107 -1.2347708999999998 -1.1688943 -1.132583 -1.2814418 -1.2022795 -1.3473458 -1.4705966000000001 -1.6609083999999998 -1.7332526000000001 -1.6761992 -1.7228702 -1.9567843 -2.0945013 -1.9965956000000002 -1.8874305 -1.9523264999999999 -1.5933899 -1.4014487 -1.3560128999999999 -0.95886457 -0.48330417 -0.044625343 0.13144175 0.34893485 0.65345523 0.92827746 0.90349566 0.97048627 1.0221354 1.0770498 0.97306995 0.92998056 0.84903207 0.76882158 0.75621834 0.65609937 0.81248661 0.724854 0.60643634
-0.035755804 0.71933982 0.16920057 0.52592483 0.64460189 -0.032198206 -0.65313136 -0.64744008 -0.99854648 -0.98739107 -1.2347708999999998 -1.1688943 -1.132583 -1.2814418 -1.2022795 -1.3473458 -1.4705966000000001 -1.6609083999999998 -1.7332526000000001 -1.6761992 -1.7228702 -1.9567843 -2.0945013 -1.9965956000000002 -1.8874305 -1.9523264999999999 -1.5933899 -1.4014487 -1.3560128999999999 -0.95886457 -0.48330417 -0.044625343 0.13144175 0.34893485 0.65345523 0.92827746 0.90349566 0.97048627 1.0221354 1.0770498 0.97306995 0.92998056 0.84903207 0.76882158 0.75621834 0.65609937 0.81248661 0.724854 0.60643634 0.53883091
0.71933982 0.16920057 0.52592483 0.64460189 -0.032198206 -0.65313136 -0.64744008 -0.99854648 -0.98739107 -1.2347708999999998 -1.1688943 -1.132583 -1.2814418 -1.2022795 -1.3473458 -1.4705966000000001 -1.6609083999999998 -1.7332526000000001 -1.6761992 -1.7228702 -1.9567843 -2.0945013 -1.9965956000000002 -1.8874305 -1.9523264999999999 -1.5933899 -1.4014487 -1.3560128999999999 -0.95886457 -0.48330417 -0.044625343 0.13144175 0.34893485 0.65345523 0.92827746 0.90349566 0.97048627 1.0221354 1.0770498 0.97306995 0.92998056 0.84903207 0.76882158 0.75621834 0.65609937 0.81248661 0.724854 0.60643634 0.53883091 0.59598285
0.16920057 0.52592483 0.64460189 -0.032198206 -0.65313136 -0.64744008 -0.99854648 -0.98739107 -1.2347708999999998 -1.1688943 -1.132583 -1.2814418 -1.2022795 -1.3473458 -1.4705966000000001 -1.6609083999999998 -1.7332526000000001 -1.6761992 -1.7228702 -1.9567843 -2.0945013 -1.9965956000000002 -1.8874305 -1.9523264999999999 -1.5933899 -1.4014487 -1.3560128999999999 -0.95886457 -0.48330417 -0.044625343 0.13144175 0.34893485 0.65345523 0.92827746 0.90349566 0.97048627 1.0221354 1.0770498 0.97306995 0.92998056 0.84903207 0.76882158 0.75621834 0.65609937 0.81248661 0.724854 0.60643634 0.53883091 0.59598285 0.76608981
0.52592483 0.64460189 -0.032198206 -0.65313136 -0.64744008 -0.99854648 -0.98739107 -1.2347708999999998 -1.1688943 -1.132583 -1.2814418 -1.2022795 -1.3473458 -1.4705966000000001 -1.6609083999999998 -1.7332526000000001 -1.6761992 -1.7228702 -1.9567843 -2.0945013 -1.9965956000000002 -1.8874305 -1.9523264999999999 -1.5933899 -1.4014487 -1.3560128999999999 -0.95886457 -0.48330417 -0.044625343 0.13144175 0.34893485 0.65345523 0.92827746 0.90349566 0.97048627 1.0221354 1.0770498 0.97306995 0.92998056 0.84903207 0.76882158 0.75621834 0.65609937 0.81248661 0.724854 0.60643634 0.53883091 0.59598285 0.76608981 0.65196068
0.64460189 -0.032198206 -0.65313136 -0.64744008 -0.99854648 -0.98739107 -1.2347708999999998 -1.1688943 -1.132583 -1.2814418 -1.2022795 -1.3473458 -1.4705966000000001 -1.6609083999999998 -1.7332526000000001 -1.6761992 -1.7228702 -1.9567843 -2.0945013 -1.9965956000000002 -1.8874305 -1.9523264999999999 -1.5933899 -1.4014487 -1.3560128999999999 -0.95886457 -0.48330417 -0.044625343 0.13144175 0.34893485 0.65345523 0.92827746 0.90349566 0.97048627 1.0221354 1.0770498 0.97306995 0.92998056 0.84903207 0.76882158 0.75621834 0.65609937 0.81248661 0.724854 0.60643634 0.53883091 0.59598285 0.76608981 0.65196068 0.58152192
-0.032198206 -0.65313136 -0.64744008 -0.99854648 -0.98739107 -1.2347708999999998 -1.1688943 -1.132583 -1.2814418 -1.2022795 -1.3473458 -1.4705966000000001 -1.6609083999999998 -1.7332526000000001 -1.6761992 -1.7228702 -1.9567843 -2.0945013 -1.9965956000000002 -1.8874305 -1.9523264999999999 -1.5933899 -1.4014487 -1.3560128999999999 -0.95886457 -0.48330417 -0.044625343 0.13144175 0.34893485 0.65345523 0.92827746 0.90349566 0.97048627 1.0221354 1.0770498 0.97306995 0.92998056 0.84903207 0.76882158 0.75621834 0.65609937 0.81248661 0.724854 0.60643634 0.53883091 0.59598285 0.76608981 0.65196068 0.58152192 0.50954751
-0.65313136 -0.64744008 -0.99854648 -0.98739107 -1.2347708999999998 -1.1688943 -1.132583 -1.2814418 -1.2022795 -1.3473458 -1.4705966000000001 -1.6609083999999998 -1.7332526000000001 -1.6761992 -1.7228702 -1.9567843 -2.0945013 -1.9965956000000002 -1.8874305 -1.9523264999999999 -1.5933899 -1.4014487 -1.3560128999999999 -0.95886457 -0.48330417 -0.044625343 0.13144175 0.34893485 0.65345523 0.92827746 0.90349566 0.97048627 1.0221354 1.0770498 0.97306995 0.92998056 0.84903207 0.76882158 0.75621834 0.65609937 0.81248661 0.724854 0.60643634 0.53883091 0.59598285 0.76608981 0.65196068 0.58152192 0.50954751 0.61452675
-0.64744008 -0.99854648 -0.98739107 -1.2347708999999998 -1.1688943 -1.132583 -1.2814418 -1.2022795 -1.3473458 -1.4705966000000001 -1.6609083999999998 -1.7332526000000001 -1.6761992 -1.7228702 -1.9567843 -2.0945013 -1.9965956000000002 -1.8874305 -1.9523264999999999 -1.5933899 -1.4014487 -1.3560128999999999 -0.95886457 -0.48330417 -0.044625343 0.13144175 0.34893485 0.65345523 0.92827746 0.90349566 0.97048627 1.0221354 1.0770498 0.97306995 0.92998056 0.84903207 0.76882158 0.75621834 0.65609937 0.81248661 0.724854 0.60643634 0.53883091 0.59598285 0.76608981 0.65196068 0.58152192 0.50954751 0.61452675 0.68880188
-0.99854648 -0.98739107 -1.2347708999999998 -1.1688943 -1.132583 -1.2814418 -1.2022795 -1.3473458 -1.4705966000000001 -1.6609083999999998 -1.7332526000000001 -1.6761992 -1.7228702 -1.9567843 -2.0945013 -1.9965956000000002 -1.8874305 -1.9523264999999999 -1.5933899 -1.4014487 -1.3560128999999999 -0.95886457 -0.48330417 -0.044625343 0.13144175 0.34893485 0.65345523 0.92827746 0.90349566 0.97048627 1.0221354 1.0770498 0.97306995 0.92998056 0.84903207 0.76882158 0.75621834 0.65609937 0.81248661 0.724854 0.60643634 0.53883091 0.59598285 0.76608981 0.65196068 0.58152192 0.50954751 0.61452675 0.68880188 0.39052644
-0.98739107 -1.2347708999999998 -1.1688943 -1.132583 -1.2814418 -1.2022795 -1.3473458 -1.4705966000000001 -1.6609083999999998 -1.7332526000000001 -1.6761992 -1.7228702 -1.9567843 -2.0945013 -1.9965956000000002 -1.8874305 -1.9523264999999999 -1.5933899 -1.4014487 -1.3560128999999999 -0.95886457 -0.48330417 -0.044625343 0.13144175 0.34893485 0.65345523 0.92827746 0.90349566 0.97048627 1.0221354 1.0770498 0.97306995 0.92998056 0.84903207 0.76882158 0.75621834 0.65609937 0.81248661 0.724854 0.60643634 0.53883091 0.59598285 0.76608981 0.65196068 0.58152192 0.50954751 0.61452675 0.68880188 0.39052644 0.30701265
-1.2347708999999998 -1.1688943 -1.132583 -1.2814418 -1.2022795 -1.3473458 -1.4705966000000001 -1.6609083999999998 -1.7332526000000001 -1.6761992 -1.7228702 -1.9567843 -2.0945013 -1.9965956000000002 -1.8874305 -1.9523264999999999 -1.5933899 -1.4014487 -1.3560128999999999 -0.95886457 -0.48330417 -0.044625343 0.13144175 0.34893485 0.65345523 0.92827746 0.90349566 0.97048627 1.0221354 1.0770498 0.97306995 0.92998056 0.84903207 0.76882158 0.75621834 0.65609937 0.81248661 0.724854 0.60643634 0.53883091 0.59598285 0.76608981 0.65196068 0.58152192 0.50954751 0.61452675 0.68880188 0.39052644 0.30701265 0.33509223
-1.1688943 -1.132583 -1.2814418 -1.2022795 -1.3473458 -1.4705966000000001 -1.6609083999999998 -1.7332526000000001 -1.6761992 -1.7228702 -1.9567843 -2.0945013 -1.9965956000000002 -1.8874305 -1.9523264999999999 -1.5933899 -1.4014487 -1.3560128999999999 -0.95886457 -0.48330417 -0.044625343 0.13144175 0.34893485 0.65345523 0.92827746 0.90349566 0.97048627 1.0221354 1.0770498 0.97306995 0.92998056 0.84903207 0.76882158 0.75621834 0.65609937 0.81248661 0.724854 0.60643634 0.53883091 0.59598285 0.76608981 0.65196068 0.58152192 0.50954751 0.61452675 0.68880188 0.39052644 0.30701265 0.33509223 0.42430212
-1.132583 -1.2814418 -1.2022795 -1.3473458 -1.4705966000000001 -1.6609083999999998 -1.7332526000000001 -1.6761992 -1.7228702 -1.9567843 -2.0945013 -1.9965956000000002 -1.8874305 -1.9523264999999999 -1.5933899 -1.4014487 -1.3560128999999999 -0.95886457 -0.48330417 -0.044625343 0.13144175 0.34893485 0.65345523 0.92827746 0.90349566 0.97048627 1.0221354 1.0770498 0.97306995 0.92998056 0.84903207 0.76882158 0.75621834 0.65609937 0.81248661 0.724854 0.60643634 0.53883091 0.59598285 0.76608981 0.65196068 0.58152192 0.50954751 0.61452675 0.68880188 0.39052644 0.30701265 0.33509223 0.42430212 0.36649593
-1.2814418 -1.2022795 -1.3473458 -1.4705966000000001 -1.6609083999999998 -1.7332526000000001 -1.6761992 -1.7228702 -1.9567843 -2.0945013 -1.9965956000000002 -1.8874305 -1.9523264999999999 -1.5933899 -1.4014487 -1.3560128999999999 -0.95886457 -0.48330417 -0.044625343 0.13144175 0.34893485 0.65345523 0.92827746 0.90349566 0.97048627 1.0221354 1.0770498 0.97306995 0.92998056 0.84903207 0.76882158 0.75621834 0.65609937 0.81248661 0.724854 0.60643634 0.53883091 0.59598285 0.76608981 0.65196068 0.58152192 0.50954751 0.61452675 0.68880188 0.39052644 0.30701265 0.33509223 0.42430212 0.36649593 0.16733544
-1.2022795 -1.3473458 -1.4705966000000001 -1.6609083999999998 -1.7332526000000001 -1.6761992 -1.7228702 -1.9567843 -2.0945013 -1.9965956000000002 -1.8874305 -1.9523264999999999 -1.5933899 -1.4014487 -1.3560128999999999 -0.95886457 -0.48330417 -0.044625343 0.13144175 0.34893485 0.65345523 0.92827746 0.90349566 0.97048627 1.0221354 1.0770498 0.97306995 0.92998056 0.84903207 0.76882158 0.75621834 0.65609937 0.81248661 0.724854 0.60643634 0.53883091 0.59598285 0.76608981 0.65196068 0.58152192 0.50954751 0.61452675 0.68880188 0.39052644 0.30701265 0.33509223 0.42430212 0.36649593 0.16733544 0.41284926
-1.3473458 -1.4705966000000001 -1.6609083999999998 -1.7332526000000001 -1.6761992 -1.7228702 -1.9567843 -2.0945013 -1.9965956000000002 -1.8874305 -1.9523264999999999 -1.5933899 -1.4014487 -1.3560128999999999 -0.95886457 -0.48330417 -0.044625343 0.13144175 0.34893485 0.65345523 0.92827746 0.90349566 0.97048627 1.0221354 1.0770498 0.97306995 0.92998056 0.84903207 0.76882158 0.75621834 0.65609937 0.81248661 0.724854 0.60643634 0.53883091 0.59598285 0.76608981 0.65196068 0.58152192 0.50954751 0.61452675 0.68880188 0.39052644 0.30701265 0.33509223 0.42430212 0.36649593 0.16733544 0.41284926 0.53834086
-1.4705966000000001 -1.6609083999999998 -1.7332526000000001 -1.6761992 -1.7228702 -1.9567843 -2.0945013 -1.9965956000000002 -1.8874305 -1.9523264999999999 -1.5933899 -1.4014487 -1.3560128999999999 -0.95886457 -0.48330417 -0.044625343 0.13144175 0.34893485 0.65345523 0.92827746 0.90349566 0.97048627 1.0221354 1.0770498 0.97306995 0.92998056 0.84903207 0.76882158 0.75621834 0.65609937 0.81248661 0.724854 0.60643634 0.53883091 0.59598285 0.76608981 0.65196068 0.58152192 0.50954751 0.61452675 0.68880188 0.39052644 0.30701265 0.33509223 0.42430212 0.36649593 0.16733544 0.41284926 0.53834086 0.37945446
-1.6609083999999998 -1.7332526000000001 -1.6761992 -1.7228702 -1.9567843 -2.0945013 -1.9965956000000002 -1.8874305 -1.9523264999999999 -1.5933899 -1.4014487 -1.3560128999999999 -0.95886457 -0.48330417 -0.044625343 0.13144175 0.34893485 0.65345523 0.92827746 0.90349566 0.97048627 1.0221354 1.0770498 0.97306995 0.92998056 0.84903207 0.76882158 0.75621834 0.65609937 0.81248661 0.724854 0.60643634 0.53883091 0.59598285 0.76608981 0.65196068 0.58152192 0.50954751 0.61452675 0.68880188 0.39052644 0.30701265 0.33509223 0.42430212 0.36649593 0.16733544 0.41284926 0.53834086 0.37945446 0.54479634
-1.7332526000000001 -1.6761992 -1.7228702 -1.9567843 -2.0945013 -1.9965956000000002 -1.8874305 -1.9523264999999999 -1.5933899 -1.4014487 -1.3560128999999999 -0.95886457 -0.48330417 -0.044625343 0.13144175 0.34893485 0.65345523 0.92827746 0.90349566 0.97048627 1.0221354 1.0770498 0.97306995 0.92998056 0.84903207 0.76882158 0.75621834 0.65609937 0.81248661 0.724854 0.60643634 0.53883091 0.59598285 0.76608981 0.65196068 0.58152192 0.50954751 0.61452675 0.68880188 0.39052644 0.30701265 0.33509223 0.42430212 0.36649593 0.16733544 0.41284926 0.53834086 0.37945446 0.54479634 0.75413877
-1.6761992 -1.7228702 -1.9567843 -2.0945013 -1.9965956000000002 -1.8874305 -1.9523264999999999 -1.5933899 -1.4014487 -1.3560128999999999 -0.95886457 -0.48330417 -0.044625343 0.13144175 0.34893485 0.65345523 0.92827746 0.90349566 0.97048627 1.0221354 1.0770498 0.97306995 0.92998056 0.84903207 0.76882158 0.75621834 0.65609937 0.81248661 0.724854 0.60643634 0.53883091 0.59598285 0.76608981 0.65196068 0.58152192 0.50954751 0.61452675 0.68880188 0.39052644 0.30701265 0.33509223 0.42430212 0.36649593 0.16733544 0.41284926 0.53834086 0.37945446 0.54479634 0.75413877 0.71926784
-1.7228702 -1.9567843 -2.0945013 -1.9965956000000002 -1.8874305 -1.9523264999999999 -1.5933899 -1.4014487 -1.3560128999999999 -0.95886457 -0.48330417 -0.044625343 0.13144175 0.34893485 0.65345523 0.92827746 0.90349566 0.97048627 1.0221354 1.0770498 0.97306995 0.92998056 0.84903207 0.76882158 0.75621834 0.65609937 0.81248661 0.724854 0.60643634 0.53883091 0.59598285 0.76608981 0.65196068 0.58152192 0.50954751 0.61452675 0.68880188 0.39052644 0.30701265 0.33509223 0.42430212 0.36649593 0.16733544 0.41284926 0.53834086 0.37945446 0.54479634 0.75413877 0.71926784 0.50206206
-1.9567843 -2.0945013 -1.9965956000000002 -1.8874305 -1.9523264999999999 -1.5933899 -1.4014487 -1.3560128999999999 -0.95886457 -0.48330417 -0.044625343 0.13144175 0.34893485 0.65345523 0.92827746 0.90349566 0.97048627 1.0221354 1.0770498 0.97306995 0.92998056 0.84903207 0.76882158 0.75621834 0.65609937 0.81248661 0.724854 0.60643634 0.53883091 0.59598285 0.76608981 0.65196068 0.58152192 0.50954751 0.61452675 0.68880188 0.39052644 0.30701265 0.33509223 0.42430212 0.36649593 0.16733544 0.41284926 0.53834086 0.37945446 0.54479634 0.75413877 0.71926784 0.50206206 0.30988251
-2.0945013 -1.9965956000000002 -1.8874305 -1.9523264999999999 -1.5933899 -1.4014487 -1.3560128999999999 -0.95886457 -0.48330417 -0.044625343 0.13144175 0.34893485 0.65345523 0.92827746 0.90349566 0.97048627 1.0221354 1.0770498 0.97306995 0.92998056 0.84903207 0.76882158 0.75621834 0.65609937 0.81248661 0.724854 0.60643634 0.53883091 0.59598285 0.76608981 0.65196068 0.58152192 0.50954751 0.61452675 0.68880188 0.39052644 0.30701265 0.33509223 0.42430212 0.36649593 0.16733544 0.41284926 0.53834086 0.37945446 0.54479634 0.75413877 0.71926784 0.50206206 0.30988251 0.24499447
-1.9965956000000002 -1.8874305 -1.9523264999999999 -1.5933899 -1.4014487 -1.3560128999999999 -0.95886457 -0.48330417 -0.044625343 0.13144175 0.34893485 0.65345523 0.92827746 0.90349566 0.97048627 1.0221354 1.0770498 0.97306995 0.92998056 0.84903207 0.76882158 0.75621834 0.65609937 0.81248661 0.724854 0.60643634 0.53883091 0.59598285 0.76608981 0.65196068 0.58152192 0.50954751 0.61452675 0.68880188 0.39052644 0.30701265 0.33509223 0.42430212 0.36649593 0.16733544 0.41284926 0.53834086 0.37945446 0.54479634 0.75413877 0.71926784 0.50206206 0.30988251 0.24499447 0.1870624
-1.8874305 -1.9523264999999999 -1.5933899 -1.4014487 -1.3560128999999999 -0.95886457 -0.48330417 -0.044625343 0.13144175 0.34893485 0.65345523 0.92827746 0.90349566 0.97048627 1.0221354 1.0770498 0.97306995 0.92998056 0.84903207 0.76882158 0.75621834 0.65609937 0.81248661 0.724854 0.60643634 0.53883091 0.59598285 0.76608981 0.65196068 0.58152192 0.50954751 0.61452675 0.68880188 0.39052644 0.30701265 0.33509223 0.42430212 0.36649593 0.16733544 0.41284926 0.53834086 0.37945446 0.54479634 0.75413877 0.71926784 0.50206206 0.30988251 0.24499447 0.1870624 0.022708647000000002
-1.9523264999999999 -1.5933899 -1.4014487 -1.3560128999999999 -0.95886457 -0.48330417 -0.044625343 0.13144175 0.34893485 0.65345523 0.92827746 0.90349566 0.97048627 1.0221354 1.0770498 0.97306995 0.92998056 0.84903207 0.76882158 0.75621834 0.65609937 0.81248661 0.724854 0.60643634 0.53883091 0.59598285 0.76608981 0.65196068 0.58152192 0.50954751 0.61452675 0.68880188 0.39052644 0.30701265 0.33509223 0.42430212 0.36649593 0.16733544 0.41284926 0.53834086 0.37945446 0.54479634 0.75413877 0.71926784 0.50206206 0.30988251 0.24499447 0.1870624 0.022708647000000002 -0.19090177
-1.5933899 -1.4014487 -1.3560128999999999 -0.95886457 -0.48330417 -0.044625343 0.13144175 0.34893485 0.65345523 0.92827746 0.90349566 0.97048627 1.0221354 1.0770498 0.97306995 0.92998056 0.84903207 0.76882158 0.75621834 0.65609937 0.81248661 0.724854 0.60643634 0.53883091 0.59598285 0.76608981 0.65196068 0.58152192 0.50954751 0.61452675 0.68880188 0.39052644 0.30701265 0.33509223 0.42430212 0.36649593 0.16733544 0.41284926 0.53834086 0.37945446 0.54479634 0.75413877 0.71926784 0.50206206 0.30988251 0.24499447 0.1870624 0.022708647000000002 -0.19090177 -0.08908971800000001
-1.4014487 -1.3560128999999999 -0.95886457 -0.48330417 -0.044625343 0.13144175 0.34893485 0.65345523 0.92827746 0.90349566 0.97048627 1.0221354 1.0770498 0.97306995 0.92998056 0.84903207 0.76882158 0.75621834 0.65609937 0.81248661 0.724854 0.60643634 0.53883091 0.59598285 0.76608981 0.65196068 0.58152192 0.50954751 0.61452675 0.68880188 0.39052644 0.30701265 0.33509223 0.42430212 0.36649593 0.16733544 0.41284926 0.53834086 0.37945446 0.54479634 0.75413877 0.71926784 0.50206206 0.30988251 0.24499447 0.1870624 0.022708647000000002 -0.19090177 -0.08908971800000001 -0.035984174
-1.3560128999999999 -0.95886457 -0.48330417 -0.044625343 0.13144175 0.34893485 0.65345523 0.92827746 0.90349566 0.97048627 1.0221354 1.0770498 0.97306995 0.92998056 0.84903207 0.76882158 0.75621834 0.65609937 0.81248661 0.724854 0.60643634 0.53883091 0.59598285 0.76608981 0.65196068 0.58152192 0.50954751 0.61452675 0.68880188 0.39052644 0.30701265 0.33509223 0.42430212 0.36649593 0.16733544 0.41284926 0.53834086 0.37945446 0.54479634 0.75413877 0.71926784 0.50206206 0.30988251 0.24499447 0.1870624 0.022708647000000002 -0.19090177 -0.08908971800000001 -0.035984174 -0.13561674
-0.95886457 -0.48330417 -0.044625343 0.13144175 0.34893485 0.65345523 0.92827746 0.90349566 0.97048627 1.0221354 1.0770498 0.97306995 0.92998056 0.84903207 0.76882158 0.75621834 0.65609937 0.81248661 0.724854 0.60643634 0.53883091 0.59598285 0.76608981 0.65196068 0.58152192 0.50954751 0.61452675 0.68880188 0.39052644 0.30701265 0.33509223 0.42430212 0.36649593 0.16733544 0.41284926 0.53834086 0.37945446 0.54479634 0.75413877 0.71926784 0.50206206 0.30988251 0.24499447 0.1870624 0.022708647000000002 -0.19090177 -0.08908971800000001 -0.035984174 -0.13561674 0.03892077
-0.48330417 -0.044625343 0.13144175 0.34893485 0.65345523 0.92827746 0.90349566 0.97048627 1.0221354 1.0770498 0.97306995 0.92998056 0.84903207 0.76882158 0.75621834 0.65609937 0.81248661 0.724854 0.60643634 0.53883091 0.59598285 0.76608981 0.65196068 0.58152192 0.50954751 0.61452675 0.68880188 0.39052644 0.30701265 0.33509223 0.42430212 0.36649593 0.16733544 0.41284926 0.53834086 0.37945446 0.54479634 0.75413877 0.71926784 0.50206206 0.30988251 0.24499447 0.1870624 0.022708647000000002 -0.19090177 -0.08908971800000001 -0.035984174 -0.13561674 0.03892077 -0.11521328
-0.044625343 0.13144175 0.34893485 0.65345523 0.92827746 0.90349566 0.97048627 1.0221354 1.0770498 0.97306995 0.92998056 0.84903207 0.76882158 0.75621834 0.65609937 0.81248661 0.724854 0.60643634 0.53883091 0.59598285 0.76608981 0.65196068 0.58152192 0.50954751 0.61452675 0.68880188 0.39052644 0.30701265 0.33509223 0.42430212 0.36649593 0.16733544 0.41284926 0.53834086 0.37945446 0.54479634 0.75413877 0.71926784 0.50206206 0.30988251 0.24499447 0.1870624 0.022708647000000002 -0.19090177 -0.08908971800000001 -0.035984174 -0.13561674 0.03892077 -0.11521328 -0.22757884
0.13144175 0.34893485 0.65345523 0.92827746 0.90349566 0.97048627 1.0221354 1.0770498 0.97306995 0.92998056 0.84903207 0.76882158 0.75621834 0.65609937 0.81248661 0.724854 0.60643634 0.53883091 0.59598285 0.76608981 0.65196068 0.58152192 0.50954751 0.61452675 0.68880188 0.39052644 0.30701265 0.33509223 0.42430212 0.36649593 0.16733544 0.41284926 0.53834086 0.37945446 0.54479634 0.75413877 0.71926784 0.50206206 0.30988251 0.24499447 0.1870624 0.022708647000000002 -0.19090177 -0.08908971800000001 -0.035984174 -0.13561674 0.03892077 -0.11521328 -0.22757884 -0.12842996
0.34893485 0.65345523 0.92827746 0.90349566 0.97048627 1.0221354 1.0770498 0.97306995 0.92998056 0.84903207 0.76882158 0.75621834 0.65609937 0.81248661 0.724854 0.60643634 0.53883091 0.59598285 0.76608981 0.65196068 0.58152192 0.50954751 0.61452675 0.68880188 0.39052644 0.30701265 0.33509223 0.42430212 0.36649593 0.16733544 0.41284926 0.53834086 0.37945446 0.54479634 0.75413877 0.71926784 0.50206206 0.30988251 0.24499447 0.1870624 0.022708647000000002 -0.19090177 -0.08908971800000001 -0.035984174 -0.13561674 0.03892077 -0.11521328 -0.22757884 -0.12842996 -0.1619318
0.65345523 0.92827746 0.90349566 0.97048627 1.0221354 1.0770498 0.97306995 0.92998056 0.84903207 0.76882158 0.75621834 0.65609937 0.81248661 0.724854 0.60643634 0.53883091 0.59598285 0.76608981 0.65196068 0.58152192 0.50954751 0.61452675 0.68880188 0.39052644 0.30701265 0.33509223 0.42430212 0.36649593 0.16733544 0.41284926 0.53834086 0.37945446 0.54479634 0.75413877 0.71926784 0.50206206 0.30988251 0.24499447 0.1870624 0.022708647000000002 -0.19090177 -0.08908971800000001 -0.035984174 -0.13561674 0.03892077 -0.11521328 -0.22757884 -0.12842996 -0.1619318 -0.014223368
0.92827746 0.90349566 0.97048627 1.0221354 1.0770498 0.97306995 0.92998056 0.84903207 0.76882158 0.75621834 0.65609937 0.81248661 0.724854 0.60643634 0.53883091 0.59598285 0.76608981 0.65196068 0.58152192 0.50954751 0.61452675 0.68880188 0.39052644 0.30701265 0.33509223 0.42430212 0.36649593 0.16733544 0.41284926 0.53834086 0.37945446 0.54479634 0.75413877 0.71926784 0.50206206 0.30988251 0.24499447 0.1870624 0.022708647000000002 -0.19090177 -0.08908971800000001 -0.035984174 -0.13561674 0.03892077 -0.11521328 -0.22757884 -0.12842996 -0.1619318 -0.014223368 -0.1007102
0.90349566 0.97048627 1.0221354 1.0770498 0.97306995 0.92998056 0.84903207 0.76882158 0.75621834 0.65609937 0.81248661 0.724854 0.60643634 0.53883091 0.59598285 0.76608981 0.65196068 0.58152192 0.50954751 0.61452675 0.68880188 0.39052644 0.30701265 0.33509223 0.42430212 0.36649593 0.16733544 0.41284926 0.53834086 0.37945446 0.54479634 0.75413877 0.71926784 0.50206206 0.30988251 0.24499447 0.1870624 0.022708647000000002 -0.19090177 -0.08908971800000001 -0.035984174 -0.13561674 0.03892077 -0.11521328 -0.22757884 -0.12842996 -0.1619318 -0.014223368 -0.1007102 0.10191216
0.97048627 1.0221354 1.0770498 0.97306995 0.92998056 0.84903207 0.76882158 0.75621834 0.65609937 0.81248661 0.724854 0.60643634 0.53883091 0.59598285 0.76608981 0.65196068 0.58152192 0.50954751 0.61452675 0.68880188 0.39052644 0.30701265 0.33509223 0.42430212 0.36649593 0.16733544 0.41284926 0.53834086 0.37945446 0.54479634 0.75413877 0.71926784 0.50206206 0.30988251 0.24499447 0.1870624 0.022708647000000002 -0.19090177 -0.08908971800000001 -0.035984174 -0.13561674 0.03892077 -0.11521328 -0.22757884 -0.12842996 -0.1619318 -0.014223368 -0.1007102 0.10191216 0.012287898
1.0221354 1.0770498 0.97306995 0.92998056 0.84903207 0.76882158 0.75621834 0.65609937 0.81248661 0.724854 0.60643634 0.53883091 0.59598285 0.76608981 0.65196068 0.58152192 0.50954751 0.61452675 0.68880188 0.39052644 0.30701265 0.33509223 0.42430212 0.36649593 0.16733544 0.41284926 0.53834086 0.37945446 0.54479634 0.75413877 0.71926784 0.50206206 0.30988251 0.24499447 0.1870624 0.022708647000000002 -0.19090177 -0.08908971800000001 -0.035984174 -0.13561674 0.03892077 -0.11521328 -0.22757884 -0.12842996 -0.1619318 -0.014223368 -0.1007102 0.10191216 0.012287898 -0.10410499999999999
1.0770498 0.97306995 0.92998056 0.84903207 0.76882158 0.75621834 0.65609937 0.81248661 0.724854 0.60643634 0.53883091 0.59598285 0.76608981 0.65196068 0.58152192 0.50954751 0.61452675 0.68880188 0.39052644 0.30701265 0.33509223 0.42430212 0.36649593 0.16733544 0.41284926 0.53834086 0.37945446 0.54479634 0.75413877 0.71926784 0.50206206 0.30988251 0.24499447 0.1870624 0.022708647000000002 -0.19090177 -0.08908971800000001 -0.035984174 -0.13561674 0.03892077 -0.11521328 -0.22757884 -0.12842996 -0.1619318 -0.014223368 -0.1007102 0.10191216 0.012287898 -0.10410499999999999 0.46355293
