-0.15738917 0.73698093 2.4996379 3.0521244999999997 1.6280318999999999 -0.36093506 -1.2269598 -0.09028939999999999 0.46134368 0.26394649 0.37287578 0.10954860000000001 -0.61703345 -1.2405919 -0.63759698 -1.1867339 -1.1788481000000002 -1.3021618000000001 -0.99205735 -1.004383 -1.2935122 -1.4486697 -1.7158839 -1.4317256 -1.4990846000000002 -1.5586423999999999 -1.8567599999999997 -2.0150859 -1.7349101999999998 -1.6264839 -1.9218906999999998 -2.0577808999999996 -1.6867679 -1.4645761 -1.3867518 -1.1050826 -0.60325177 -0.28381611 0.01852978 0.30979707 0.61014797 1.1890136 0.89323066 0.98472203 1.200026 1.136819 1.1377805 1.1240111000000002 1.0165527 0.95049934
0.73698093 2.4996379 3.0521244999999997 1.6280318999999999 -0.36093506 -1.2269598 -0.09028939999999999 0.46134368 0.26394649 0.37287578 0.10954860000000001 -0.61703345 -1.2405919 -0.63759698 -1.1867339 -1.1788481000000002 -1.3021618000000001 -0.99205735 -1.004383 -1.2935122 -1.4486697 -1.7158839 -1.4317256 -1.4990846000000002 -1.5586423999999999 -1.8567599999999997 -2.0150859 -1.7349101999999998 -1.6264839 -1.9218906999999998 -2.0577808999999996 -1.6867679 -1.4645761 -1.3867518 -1.1050826 -0.60325177 -0.28381611 0.01852978 0.30979707 0.61014797 1.1890136 0.89323066 0.98472203 1.200026 1.136819 1.1377805 1.1240111000000002 1.0165527 0.95049934 1.0063636
2.4996379 3.0521244999999997 1.6280318999999999 -0.36093506 -1.2269598 -0.09028939999999999 0.46134368 0.26394649 0.37287578 0.10954860000000001 -0.61703345 -1.2405919 -0.63759698 -1.1867339 -1.1788481000000002 -1.3021618000000001 -0.99205735 -1.004383 -1.2935122 -1.4486697 -1.7158839 -1.4317256 -1.4990846000000002 -1.5586423999999999 -1.8567599999999997 -2.0150859 -1.7349101999999998 -1.6264839 -1.9218906999999998 -2.0577808999999996 -1.6867679 -1.4645761 -1.3867518 -1.1050826 -0.60325177 -0.28381611 0.01852978 0.30979707 0.61014797 1.1890136 0.89323066 0.98472203 1.200026 1.136819 1.1377805 1.1240111000000002 1.0165527 0.95049934 1.0063636 0.89310823
3.0521244999999997 1.6280318999999999 -0.36093506 -1.2269598 -0.09028939999999999 0.46134368 0.26394649 0.37287578 0.10954860000000001 -0.61703345 -1.2405919 -0.63759698 -1.1867339 -1.1788481000000002 -1.3021618000000001 -0.99205735 -1.004383 -1.2935122 -1.4486697 -1.7158839 -1.4317256 -1.4990846000000002 -1.5586423999999999 -1.8567599999999997 -2.0150859 -1.7349101999999998 -1.6264839 -1.9218906999999998 -2.0577808999999996 -1.6867679 -1.4645761 -1.3867518 -1.1050826 -0.60325177 -0.28381611 0.01852978 0.30979707 0.61014797 1.1890136 0.89323066 0.98472203 1.200026 1.136819 1.1377805 1.1240111000000002 1.0165527 0.95049934 1.0063636 0.89310823 0.65362024
1.6280318999999999 -0.36093506 -1.2269598 -0.09028939999999999 0.46134368 0.26394649 0.37287578 0.10954860000000001 -0.61703345 -1.2405919 -0.63759698 -1.1867339 -1.1788481000000002 -1.3021618000000001 -0.99205735 -1.004383 -1.2935122 -1.4486697 -1.7158839 -1.4317256 -1.4990846000000002 -1.5586423999999999 -1.8567599999999997 -2.0150859 -1.7349101999999998 -1.6264839 -1.9218906999999998 -2.0577808999999996 -1.6867679 -1.4645761 -1.3867518 -1.1050826 -0.60325177 -0.28381611 0.01852978 0.30979707 0.61014797 1.1890136 0.89323066 0.98472203 1.200026 1.136819 1.1377805 1.1240111000000002 1.0165527 0.95049934 1.0063636 0.89310823 0.65362024 0.88646385
-0.36093506 -1.2269598 -0.09028939999999999 0.46134368 0.26394649 0.37287578 0.10954860000000001 -0.61703345 -1.2405919 -0.63759698 -1.1867339 -1.1788481000000002 -1.3021618000000001 -0.99205735 -1.004383 -1.2935122 -1.4486697 -1.7158839 -1.4317256 -1.4990846000000002 -1.5586423999999999 -1.8567599999999997 -2.0150859 -1.7349101999999998 -1.6264839 -1.9218906999999998 -2.0577808999999996 -1.6867679 -1.4645761 -1.3867518 -1.1050826 -0.60325177 -0.28381611 0.01852978 0.30979707 0.61014797 1.1890136 0.89323066 0.98472203 1.200026 1.136819 1.1377805 1.1240111000000002 1.0165527 0.95049934 1.0063636 0.89310823 0.65362024 0.88646385 0.94861722
-1.2269598 -0.09028939999999999 0.46134368 0.26394649 0.37287578 0.10954860000000001 -0.61703345 -1.2405919 -0.63759698 -1.1867339 -1.1788481000000002 -1.3021618000000001 -0.99205735 -1.004383 -1.2935122 -1.4486697 -1.7158839 -1.4317256 -1.4990846000000002 -1.5586423999999999 -1.8567599999999997 -2.0150859 -1.7349101999999998 -1.6264839 -1.9218906999999998 -2.0577808999999996 -1.6867679 -1.4645761 -1.3867518 -1.1050826 -0.60325177 -0.28381611 0.01852978 0.30979707 0.61014797 1.1890136 0.89323066 0.98472203 1.200026 1.136819 1.1377805 1.1240111000000002 1.0165527 0.95049934 1.0063636 0.89310823 0.65362024 0.88646385 0.94861722 0.5431491999999999
-0.09028939999999999 0.46134368 0.26394649 0.37287578 0.10954860000000001 -0.61703345 -1.2405919 -0.63759698 -1.1867339 -1.1788481000000002 -1.3021618000000001 -0.99205735 -1.004383 -1.2935122 -1.4486697 -1.7158839 -1.4317256 -1.4990846000000002 -1.5586423999999999 -1.8567599999999997 -2.0150859 -1.7349101999999998 -1.6264839 -1.9218906999999998 -2.0577808999999996 -1.6867679 -1.4645761 -1.3867518 -1.1050826 -0.60325177 -0.28381611 0.01852978 0.30979707 0.61014797 1.1890136 0.89323066 0.98472203 1.200026 1.136819 1.1377805 1.1240111000000002 1.0165527 0.95049934 1.0063636 0.89310823 0.65362024 0.88646385 0.94861722 0.5431491999999999 0.85479621
0.46134368 0.26394649 0.37287578 0.10954860000000001 -0.61703345 -1.2405919 -0.63759698 -1.1867339 -1.1788481000000002 -1.3021618000000001 -0.99205735 -1.004383 -1.2935122 -1.4486697 -1.7158839 -1.4317256 -1.4990846000000002 -1.5586423999999999 -1.8567599999999997 -2.0150859 -1.7349101999999998 -1.6264839 -1.9218906999999998 -2.0577808999999996 -1.6867679 -1.4645761 -1.3867518 -1.1050826 -0.60325177 -0.28381611 0.01852978 0.30979707 0.61014797 1.1890136 0.89323066 0.98472203 1.200026 1.136819 1.1377805 1.1240111000000002 1.0165527 0.95049934 1.0063636 0.89310823 0.65362024 0.88646385 0.94861722 0.5431491999999999 0.85479621 0.44309256
0.26394649 0.37287578 0.10954860000000001 -0.61703345 -1.2405919 -0.63759698 -1.1867339 -1.1788481000000002 -1.3021618000000001 -0.99205735 -1.004383 -1.2935122 -1.4486697 -1.7158839 -1.4317256 -1.4990846000000002 -1.5586423999999999 -1.8567599999999997 -2.0150859 -1.7349101999999998 -1.6264839 -1.9218906999999998 -2.0577808999999996 -1.6867679 -1.4645761 -1.3867518 -1.1050826 -0.60325177 -0.28381611 0.01852978 0.30979707 0.61014797 1.1890136 0.89323066 0.98472203 1.200026 1.136819 1.1377805 1.1240111000000002 1.0165527 0.95049934 1.0063636 0.89310823 0.65362024 0.88646385 0.94861722 0.5431491999999999 0.85479621 0.44309256 0.35907526
0.37287578 0.10954860000000001 -0.61703345 -1.2405919 -0.63759698 -1.1867339 -1.1788481000000002 -1.3021618000000001 -0.99205735 -1.004383 -1.2935122 -1.4486697 -1.7158839 -1.4317256 -1.4990846000000002 -1.5586423999999999 -1.8567599999999997 -2.0150859 -1.7349101999999998 -1.6264839 -1.9218906999999998 -2.0577808999999996 -1.6867679 -1.4645761 -1.3867518 -1.1050826 -0.60325177 -0.28381611 0.01852978 0.30979707 0.61014797 1.1890136 0.89323066 0.98472203 1.200026 1.136819 1.1377805 1.1240111000000002 1.0165527 0.95049934 1.0063636 0.89310823 0.65362024 0.88646385 0.94861722 0.5431491999999999 0.85479621 0.44309256 0.35907526 1.0432701
0.10954860000000001 -0.61703345 -1.2405919 -0.63759698 -1.1867339 -1.1788481000000002 -1.3021618000000001 -0.99205735 -1.004383 -1.2935122 -1.4486697 -1.7158839 -1.4317256 -1.4990846000000002 -1.5586423999999999 -1.8567599999999997 -2.0150859 -1.7349101999999998 -1.6264839 -1.9218906999999998 -2.0577808999999996 -1.6867679 -1.4645761 -1.3867518 -1.1050826 -0.60325177 -0.28381611 0.01852978 0.30979707 0.61014797 1.1890136 0.89323066 0.98472203 1.200026 1.136819 1.1377805 1.1240111000000002 1.0165527 0.95049934 1.0063636 0.89310823 0.65362024 0.88646385 0.94861722 0.5431491999999999 0.85479621 0.44309256 0.35907526 1.0432701 0.82765915
-0.61703345 -1.2405919 -0.63759698 -1.1867339 -1.1788481000000002 -1.3021618000000001 -0.99205735 -1.004383 -1.2935122 -1.4486697 -1.7158839 -1.4317256 -1.4990846000000002 -1.5586423999999999 -1.8567599999999997 -2.0150859 -1.7349101999999998 -1.6264839 -1.9218906999999998 -2.0577808999999996 -1.6867679 -1.4645761 -1.3867518 -1.1050826 -0.60325177 -0.28381611 0.01852978 0.30979707 0.61014797 1.1890136 0.89323066 0.98472203 1.200026 1.136819 1.1377805 1.1240111000000002 1.0165527 0.95049934 1.0063636 0.89310823 0.65362024 0.88646385 0.94861722 0.5431491999999999 0.85479621 0.44309256 0.35907526 1.0432701 0.82765915 0.29922593
-1.2405919 -0.63759698 -1.1867339 -1.1788481000000002 -1.3021618000000001 -0.99205735 -1.004383 -1.2935122 -1.4486697 -1.7158839 -1.4317256 -1.4990846000000002 -1.5586423999999999 -1.8567599999999997 -2.0150859 -1.7349101999999998 -1.6264839 -1.9218906999999998 -2.0577808999999996 -1.6867679 -1.4645761 -1.3867518 -1.1050826 -0.60325177 -0.28381611 0.01852978 0.30979707 0.61014797 1.1890136 0.89323066 0.98472203 1.200026 1.136819 1.1377805 1.1240111000000002 1.0165527 0.95049934 1.0063636 0.89310823 0.65362024 0.88646385 0.94861722 0.5431491999999999 0.85479621 0.44309256 0.35907526 1.0432701 0.82765915 0.29922593 0.49136903
-0.63759698 -1.1867339 -1.1788481000000002 -1.3021618000000001 -0.99205735 -1.004383 -1.2935122 -1.4486697 -1.7158839 -1.4317256 -1.4990846000000002 -1.5586423999999999 -1.8567599999999997 -2.0150859 -1.7349101999999998 -1.6264839 -1.9218906999999998 -2.0577808999999996 -1.6867679 -1.4645761 -1.3867518 -1.1050826 -0.60325177 -0.28381611 0.01852978 0.30979707 0.61014797 1.1890136 0.89323066 0.98472203 1.200026 1.136819 1.1377805 1.1240111000000002 1.0165527 0.95049934 1.0063636 0.89310823 0.65362024 0.88646385 0.94861722 0.5431491999999999 0.85479621 0.44309256 0.35907526 1.0432701 0.82765915 0.29922593 0.49136903 0.62283443
-1.1867339 -1.1788481000000002 -1.3021618000000001 -0.99205735 -1.004383 -1.2935122 -1.4486697 -1.7158839 -1.4317256 -1.4990846000000002 -1.5586423999999999 -1.8567599999999997 -2.0150859 -1.7349101999999998 -1.6264839 -1.9218906999999998 -2.0577808999999996 -1.6867679 -1.4645761 -1.3867518 -1.1050826 -0.60325177 -0.28381611 0.01852978 0.30979707 0.61014797 1.1890136 0.89323066 0.98472203 1.200026 1.136819 1.1377805 1.1240111000000002 1.0165527 0.95049934 1.0063636 0.89310823 0.65362024 0.88646385 0.94861722 0.5431491999999999 0.85479621 0.44309256 0.35907526 1.0432701 0.82765915 0.29922593 0.49136903 0.62283443 0.24474693
-1.1788481000000002 -1.3021618000000001 -0.99205735 -1.004383 -1.2935122 -1.4486697 -1.7158839 -1.4317256 -1.4990846000000002 -1.5586423999999999 -1.8567599999999997 -2.0150859 -1.7349101999999998 -1.6264839 -1.9218906999999998 -2.0577808999999996 -1.6867679 -1.4645761 -1.3867518 -1.1050826 -0.60325177 -0.28381611 0.01852978 0.30979707 0.61014797 1.1890136 0.89323066 0.98472203 1.200026 1.136819 1.1377805 1.1240111000000002 1.0165527 0.95049934 1.0063636 0.89310823 0.65362024 0.88646385 0.94861722 0.5431491999999999 0.85479621 0.44309256 0.35907526 1.0432701 0.82765915 0.29922593 0.49136903 0.62283443 0.24474693 0.51545871
-1.3021618000000001 -0.99205735 -1.004383 -1.2935122 -1.4486697 -1.7158839 -1.4317256 -1.4990846000000002 -1.5586423999999999 -1.8567599999999997 -2.0150859 -1.7349101999999998 -1.6264839 -1.9218906999999998 -2.0577808999999996 -1.6867679 -1.4645761 -1.3867518 -1.1050826 -0.60325177 -0.28381611 0.01852978 0.30979707 0.61014797 1.1890136 0.89323066 0.98472203 1.200026 1.136819 1.1377805 1.1240111000000002 1.0165527 0.95049934 1.0063636 0.89310823 0.65362024 0.88646385 0.94861722 0.5431491999999999 0.85479621 0.44309256 0.35907526 1.0432701 0.82765915 0.29922593 0.49136903 0.62283443 0.24474693 0.51545871 0.50933115
-0.99205735 -1.004383 -1.2935122 -1.4486697 -1.7158839 -1.4317256 -1.4990846000000002 -1.5586423999999999 -1.8567599999999997 -2.0150859 -1.7349101999999998 -1.6264839 -1.9218906999999998 -2.0577808999999996 -1.6867679 -1.4645761 -1.3867518 -1.1050826 -0.60325177 -0.28381611 0.01852978 0.30979707 0.61014797 1.1890136 0.89323066 0.98472203 1.200026 1.136819 1.1377805 1.1240111000000002 1.0165527 0.95049934 1.0063636 0.89310823 0.65362024 0.88646385 0.94861722 0.5431491999999999 0.85479621 0.44309256 0.35907526 1.0432701 0.82765915 0.29922593 0.49136903 0.62283443 0.24474693 0.51545871 0.50933115 0.25763912
-1.004383 -1.2935122 -1.4486697 -1.7158839 -1.4317256 -1.4990846000000002 -1.5586423999999999 -1.8567599999999997 -2.0150859 -1.7349101999999998 -1.6264839 -1.9218906999999998 -2.0577808999999996 -1.6867679 -1.4645761 -1.3867518 -1.1050826 -0.60325177 -0.28381611 0.01852978 0.30979707 0.61014797 1.1890136 0.89323066 0.98472203 1.200026 1.136819 1.1377805 1.1240111000000002 1.0165527 0.95049934 1.0063636 0.89310823 0.65362024 0.88646385 0.94861722 0.5431491999999999 0.85479621 0.44309256 0.35907526 1.0432701 0.82765915 0.29922593 0.49136903 0.62283443 0.24474693 0.51545871 0.50933115 0.25763912 0.54448365
-1.2935122 -1.4486697 -1.7158839 -1.4317256 -1.4990846000000002 -1.5586423999999999 -1.8567599999999997 -2.0150859 -1.7349101999999998 -1.6264839 -1.9218906999999998 -2.0577808999999996 -1.6867679 -1.4645761 -1.3867518 -1.1050826 -0.60325177 -0.28381611 0.01852978 0.30979707 0.61014797 1.1890136 0.89323066 0.98472203 1.200026 1.136819 1.1377805 1.1240111000000002 1.0165527 0.95049934 1.0063636 0.89310823 0.65362024 0.88646385 0.94861722 0.5431491999999999 0.85479621 0.44309256 0.35907526 1.0432701 0.82765915 0.29922593 0.49136903 0.62283443 0.24474693 0.51545871 0.50933115 0.25763912 0.54448365 0.10467057
-1.4486697 -1.7158839 -1.4317256 -1.4990846000000002 -1.5586423999999999 -1.8567599999999997 -2.0150859 -1.7349101999999998 -1.6264839 -1.9218906999999998 -2.0577808999999996 -1.6867679 -1.4645761 -1.3867518 -1.1050826 -0.60325177 -0.28381611 0.01852978 0.30979707 0.61014797 1.1890136 0.89323066 0.98472203 1.200026 1.136819 1.1377805 1.1240111000000002 1.0165527 0.95049934 1.0063636 0.89310823 0.65362024 0.88646385 0.94861722 0.5431491999999999 0.85479621 0.44309256 0.35907526 1.0432701 0.82765915 0.29922593 0.49136903 0.62283443 0.24474693 0.51545871 0.50933115 0.25763912 0.54448365 0.10467057 0.30478711
-1.7158839 -1.4317256 -1.4990846000000002 -1.5586423999999999 -1.8567599999999997 -2.0150859 -1.7349101999999998 -1.6264839 -1.9218906999999998 -2.0577808999999996 -1.6867679 -1.4645761 -1.3867518 -1.1050826 -0.60325177 -0.28381611 0.01852978 0.30979707 0.61014797 1.1890136 0.89323066 0.98472203 1.200026 1.136819 1.1377805 1.1240111000000002 1.0165527 0.95049934 1.0063636 0.89310823 0.65362024 0.88646385 0.94861722 0.5431491999999999 0.85479621 0.44309256 0.35907526 1.0432701 0.82765915 0.29922593 0.49136903 0.62283443 0.24474693 0.51545871 0.50933115 0.25763912 0.54448365 0.10467057 0.30478711 0.29124101
-1.4317256 -1.4990846000000002 -1.5586423999999999 -1.8567599999999997 -2.0150859 -1.7349101999999998 -1.6264839 -1.9218906999999998 -2.0577808999999996 -1.6867679 -1.4645761 -1.3867518 -1.1050826 -0.60325177 -0.28381611 0.01852978 0.30979707 0.61014797 1.1890136 0.89323066 0.98472203 1.200026 1.136819 1.1377805 1.1240111000000002 1.0165527 0.95049934 1.0063636 0.89310823 0.65362024 0.88646385 0.94861722 0.5431491999999999 0.85479621 0.44309256 0.35907526 1.0432701 0.82765915 0.29922593 0.49136903 0.62283443 0.24474693 0.51545871 0.50933115 0.25763912 0.54448365 0.10467057 0.30478711 0.29124101 0.06150538
-1.4990846000000002 -1.5586423999999999 -1.8567599999999997 -2.0150859 -1.7349101999999998 -1.6264839 -1.9218906999999998 -2.0577808999999996 -1.6867679 -1.4645761 -1.3867518 -1.1050826 -0.60325177 -0.28381611 0.01852978 0.30979707 0.61014797 1.1890136 0.89323066 0.98472203 1.200026 1.136819 1.1377805 1.1240111000000002 1.0165527 0.95049934 1.0063636 0.89310823 0.65362024 0.88646385 0.94861722 0.5431491999999999 0.85479621 0.44309256 0.35907526 1.0432701 0.82765915 0.29922593 0.49136903 0.62283443 0.24474693 0.51545871 0.50933115 0.25763912 0.54448365 0.10467057 0.30478711 0.29124101 0.06150538 0.48883963
-1.5586423999999999 -1.8567599999999997 -2.0150859 -1.7349101999999998 -1.6264839 -1.9218906999999998 -2.0577808999999996 -1.6867679 -1.4645761 -1.3867518 -1.1050826 -0.60325177 -0.28381611 0.01852978 0.30979707 0.61014797 1.1890136 0.89323066 0.98472203 1.200026 1.136819 1.1377805 1.1240111000000002 1.0165527 0.95049934 1.0063636 0.89310823 0.65362024 0.88646385 0.94861722 0.5431491999999999 0.85479621 0.44309256 0.35907526 1.0432701 0.82765915 0.29922593 0.49136903 0.62283443 0.24474693 0.51545871 0.50933115 0.25763912 0.54448365 0.10467057 0.30478711 0.29124101 0.06150538 0.48883963 0.48156552
-1.8567599999999997 -2.0150859 -1.7349101999999998 -1.6264839 -1.9218906999999998 -2.0577808999999996 -1.6867679 -1.4645761 -1.3867518 -1.1050826 -0.60325177 -0.28381611 0.01852978 0.30979707 0.61014797 1.1890136 0.89323066 0.98472203 1.200026 1.136819 1.1377805 1.1240111000000002 1.0165527 0.95049934 1.0063636 0.89310823 0.65362024 0.88646385 0.94861722 0.5431491999999999 0.85479621 0.44309256 0.35907526 1.0432701 0.82765915 0.29922593 0.49136903 0.62283443 0.24474693 0.51545871 0.50933115 0.25763912 0.54448365 0.10467057 0.30478711 0.29124101 0.06150538 0.48883963 0.48156552 0.76400489
-2.0150859 -1.7349101999999998 -1.6264839 -1.9218906999999998 -2.0577808999999996 -1.6867679 -1.4645761 -1.3867518 -1.1050826 -0.60325177 -0.28381611 0.01852978 0.30979707 0.61014797 1.1890136 0.89323066 0.98472203 1.200026 1.136819 1.1377805 1.1240111000000002 1.0165527 0.95049934 1.0063636 0.89310823 0.65362024 0.88646385 0.94861722 0.5431491999999999 0.85479621 0.44309256 0.35907526 1.0432701 0.82765915 0.29922593 0.49136903 0.62283443 0.24474693 0.51545871 0.50933115 0.25763912 0.54448365 0.10467057 0.30478711 0.29124101 0.06150538 0.48883963 0.48156552 0.76400489 0.57885921
-1.7349101999999998 -1.6264839 -1.9218906999999998 -2.0577808999999996 -1.6867679 -1.4645761 -1.3867518 -1.1050826 -0.60325177 -0.28381611 0.01852978 0.30979707 0.61014797 1.1890136 0.89323066 0.98472203 1.200026 1.136819 1.1377805 1.1240111000000002 1.0165527 0.95049934 1.0063636 0.89310823 0.65362024 0.88646385 0.94861722 0.5431491999999999 0.85479621 0.44309256 0.35907526 1.0432701 0.82765915 0.29922593 0.49136903 0.62283443 0.24474693 0.51545871 0.50933115 0.25763912 0.54448365 0.10467057 0.30478711 0.29124101 0.06150538 0.48883963 0.48156552 0.76400489 0.57885921 0.65465996
-1.6264839 -1.9218906999999998 -2.0577808999999996 -1.6867679 -1.4645761 -1.3867518 -1.1050826 -0.60325177 -0.28381611 0.01852978 0.30979707 0.61014797 1.1890136 0.89323066 0.98472203 1.200026 1.136819 1.1377805 1.1240111000000002 1.0165527 0.95049934 1.0063636 0.89310823 0.65362024 0.88646385 0.94861722 0.5431491999999999 0.85479621 0.44309256 0.35907526 1.0432701 0.82765915 0.29922593 0.49136903 0.62283443 0.24474693 0.51545871 0.50933115 0.25763912 0.54448365 0.10467057 0.30478711 0.29124101 0.06150538 0.48883963 0.48156552 0.76400489 0.57885921 0.65465996 0.57880072
-1.9218906999999998 -2.0577808999999996 -1.6867679 -1.4645761 -1.3867518 -1.1050826 -0.60325177 -0.28381611 0.01852978 0.30979707 0.61014797 1.1890136 0.89323066 0.98472203 1.200026 1.136819 1.1377805 1.1240111000000002 1.0165527 0.95049934 1.0063636 0.89310823 0.65362024 0.88646385 0.94861722 0.5431491999999999 0.85479621 0.44309256 0.35907526 1.0432701 0.82765915 0.29922593 0.49136903 0.62283443 0.24474693 0.51545871 0.50933115 0.25763912 0.54448365 0.10467057 0.30478711 0.29124101 0.06150538 0.48883963 0.48156552 0.76400489 0.57885921 0.65465996 0.57880072 -0.057641124
-2.0577808999999996 -1.6867679 -1.4645761 -1.3867518 -1.1050826 -0.60325177 -0.28381611 0.01852978 0.30979707 0.61014797 1.1890136 0.89323066 0.98472203 1.200026 1.136819 1.1377805 1.1240111000000002 1.0165527 0.95049934 1.0063636 0.89310823 0.65362024 0.88646385 0.94861722 0.5431491999999999 0.85479621 0.44309256 0.35907526 1.0432701 0.82765915 0.29922593 0.49136903 0.62283443 0.24474693 0.51545871 0.50933115 0.25763912 0.54448365 0.10467057 0.30478711 0.29124101 0.06150538 0.48883963 0.48156552 0.76400489 0.57885921 0.65465996 0.57880072 -0.057641124 0.338954
-1.6867679 -1.4645761 -1.3867518 -1.1050826 -0.60325177 -0.28381611 0.01852978 0.30979707 0.61014797 1.1890136 0.89323066 0.98472203 1.200026 1.136819 1.1377805 1.1240111000000002 1.0165527 0.95049934 1.0063636 0.89310823 0.65362024 0.88646385 0.94861722 0.5431491999999999 0.85479621 0.44309256 0.35907526 1.0432701 0.82765915 0.29922593 0.49136903 0.62283443 0.24474693 0.51545871 0.50933115 0.25763912 0.54448365 0.10467057 0.30478711 0.29124101 0.06150538 0.48883963 0.48156552 0.76400489 0.57885921 0.65465996 0.57880072 -0.057641124 0.338954 0.13209579999999999
-1.4645761 -1.3867518 -1.1050826 -0.60325177 -0.28381611 0.01852978 0.30979707 0.61014797 1.1890136 0.89323066 0.98472203 1.200026 1.136819 1.1377805 1.1240111000000002 1.0165527 0.95049934 1.0063636 0.89310823 0.65362024 0.88646385 0.94861722 0.5431491999999999 0.85479621 0.44309256 0.35907526 1.0432701 0.82765915 0.29922593 0.49136903 0.62283443 0.24474693 0.51545871 0.50933115 0.25763912 0.54448365 0.10467057 0.30478711 0.29124101 0.06150538 0.48883963 0.48156552 0.76400489 0.57885921 0.65465996 0.57880072 -0.057641124 0.338954 0.13209579999999999 0.076898761
-1.3867518 -1.1050826 -0.60325177 -0.28381611 0.01852978 0.30979707 0.61014797 1.1890136 0.89323066 0.98472203 1.200026 1.136819 1.1377805 1.1240111000000002 1.0165527 0.95049934 1.0063636 0.89310823 0.65362024 0.88646385 0.94861722 0.5431491999999999 0.85479621 0.44309256 0.35907526 1.0432701 0.82765915 0.29922593 0.49136903 0.62283443 0.24474693 0.51545871 0.50933115 0.25763912 0.54448365 0.10467057 0.30478711 0.29124101 0.06150538 0.48883963 0.48156552 0.76400489 0.57885921 0.65465996 0.57880072 -0.057641124 0.338954 0.13209579999999999 0.076898761 -0.05898039099999999
-1.1050826 -0.60325177 -0.28381611 0.01852978 0.30979707 0.61014797 1.1890136 0.89323066 0.98472203 1.200026 1.136819 1.1377805 1.1240111000000002 1.0165527 0.95049934 1.0063636 0.89310823 0.65362024 0.88646385 0.94861722 0.5431491999999999 0.85479621 0.44309256 0.35907526 1.0432701 0.82765915 0.29922593 0.49136903 0.62283443 0.24474693 0.51545871 0.50933115 0.25763912 0.54448365 0.10467057 0.30478711 0.29124101 0.06150538 0.48883963 0.48156552 0.76400489 0.57885921 0.65465996 0.57880072 -0.057641124 0.338954 0.13209579999999999 0.076898761 -0.05898039099999999 -0.076748768
-0.60325177 -0.28381611 0.01852978 0.30979707 0.61014797 1.1890136 0.89323066 0.98472203 1.200026 1.136819 1.1377805 1.1240111000000002 1.0165527 0.95049934 1.0063636 0.89310823 0.65362024 0.88646385 0.94861722 0.5431491999999999 0.85479621 0.44309256 0.35907526 1.0432701 0.82765915 0.29922593 0.49136903 0.62283443 0.24474693 0.51545871 0.50933115 0.25763912 0.54448365 0.10467057 0.30478711 0.29124101 0.06150538 0.48883963 0.48156552 0.76400489 0.57885921 0.65465996 0.57880072 -0.057641124 0.338954 0.13209579999999999 0.076898761 -0.05898039099999999 -0.076748768 -0.022102371000000003
-0.28381611 0.01852978 0.30979707 0.61014797 1.1890136 0.89323066 0.98472203 1.200026 1.136819 1.1377805 1.1240111000000002 1.0165527 0.95049934 1.0063636 0.89310823 0.65362024 0.88646385 0.94861722 0.5431491999999999 0.85479621 0.44309256 0.35907526 1.0432701 0.82765915 0.29922593 0.49136903 0.62283443 0.24474693 0.51545871 0.50933115 0.25763912 0.54448365 0.10467057 0.30478711 0.29124101 0.06150538 0.48883963 0.48156552 0.76400489 0.57885921 0.65465996 0.57880072 -0.057641124 0.338954 0.13209579999999999 0.076898761 -0.05898039099999999 -0.076748768 -0.022102371000000003 -0.16132255
0.01852978 0.30979707 0.61014797 1.1890136 0.89323066 0.98472203 1.200026 1.136819 1.1377805 1.1240111000000002 1.0165527 0.95049934 1.0063636 0.89310823 0.65362024 0.88646385 0.94861722 0.5431491999999999 0.85479621 0.44309256 0.35907526 1.0432701 0.82765915 0.29922593 0.49136903 0.62283443 0.24474693 0.51545871 0.50933115 0.25763912 0.54448365 0.10467057 0.30478711 0.29124101 0.06150538 0.48883963 0.48156552 0.76400489 0.57885921 0.65465996 0.57880072 -0.057641124 0.338954 0.13209579999999999 0.076898761 -0.05898039099999999 -0.076748768 -0.022102371000000003 -0.16132255 0.06865574
0.30979707 0.61014797 1.1890136 0.89323066 0.98472203 1.200026 1.136819 1.1377805 1.1240111000000002 1.0165527 0.95049934 1.0063636 0.89310823 0.65362024 0.88646385 0.94861722 0.5431491999999999 0.85479621 0.44309256 0.35907526 1.0432701 0.82765915 0.29922593 0.49136903 0.62283443 0.24474693 0.51545871 0.50933115 0.25763912 0.54448365 0.10467057 0.30478711 0.29124101 0.06150538 0.48883963 0.48156552 0.76400489 0.57885921 0.65465996 0.57880072 -0.057641124 0.338954 0.13209579999999999 0.076898761 -0.05898039099999999 -0.076748768 -0.022102371000000003 -0.16132255 0.06865574 0.1921494
0.61014797 1.1890136 0.89323066 0.98472203 1.200026 1.136819 1.1377805 1.1240111000000002 1.0165527 0.95049934 1.0063636 0.89310823 0.65362024 0.88646385 0.94861722 0.5431491999999999 0.85479621 0.44309256 0.35907526 1.0432701 0.82765915 0.29922593 0.49136903 0.62283443 0.24474693 0.51545871 0.50933115 0.25763912 0.54448365 0.10467057 0.30478711 0.29124101 0.06150538 0.48883963 0.48156552 0.76400489 0.57885921 0.65465996 0.57880072 -0.057641124 0.338954 0.13209579999999999 0.076898761 -0.05898039099999999 -0.076748768 -0.022102371000000003 -0.16132255 0.06865574 0.1921494 -0.05126355900000001
1.1890136 0.89323066 0.98472203 1.200026 1.136819 1.1377805 1.1240111000000002 1.0165527 0.95049934 1.0063636 0.89310823 0.65362024 0.88646385 0.94861722 0.5431491999999999 0.85479621 0.44309256 0.35907526 1.0432701 0.82765915 0.29922593 0.49136903 0.62283443 0.24474693 0.51545871 0.50933115 0.25763912 0.54448365 0.10467057 0.30478711 0.29124101 0.06150538 0.48883963 0.48156552 0.76400489 0.57885921 0.65465996 0.57880072 -0.057641124 0.338954 0.13209579999999999 0.076898761 -0.05898039099999999 -0.076748768 -0.022102371000000003 -0.16132255 0.06865574 0.1921494 -0.05126355900000001 0.068644092
0.89323066 0.98472203 1.200026 1.136819 1.1377805 1.1240111000000002 1.0165527 0.95049934 1.0063636 0.89310823 0.65362024 0.88646385 0.94861722 0.5431491999999999 0.85479621 0.44309256 0.35907526 1.0432701 0.82765915 0.29922593 0.49136903 0.62283443 0.24474693 0.51545871 0.50933115 0.25763912 0.54448365 0.10467057 0.30478711 0.29124101 0.06150538 0.48883963 0.48156552 0.76400489 0.57885921 0.65465996 0.57880072 -0.057641124 0.338954 0.13209579999999999 0.076898761 -0.05898039099999999 -0.076748768 -0.022102371000000003 -0.16132255 0.06865574 0.1921494 -0.05126355900000001 0.068644092 -0.017255661000000002
0.98472203 1.200026 1.136819 1.1377805 1.1240111000000002 1.0165527 0.95049934 1.0063636 0.89310823 0.65362024 0.88646385 0.94861722 0.5431491999999999 0.85479621 0.44309256 0.35907526 1.0432701 0.82765915 0.29922593 0.49136903 0.62283443 0.24474693 0.51545871 0.50933115 0.25763912 0.54448365 0.10467057 0.30478711 0.29124101 0.06150538 0.48883963 0.48156552 0.76400489 0.57885921 0.65465996 0.57880072 -0.057641124 0.338954 0.13209579999999999 0.076898761 -0.05898039099999999 -0.076748768 -0.022102371000000003 -0.16132255 0.06865574 0.1921494 -0.05126355900000001 0.068644092 -0.017255661000000002 0.016510036000000002
1.200026 1.136819 1.1377805 1.1240111000000002 1.0165527 0.95049934 1.0063636 0.89310823 0.65362024 0.88646385 0.94861722 0.5431491999999999 0.85479621 0.44309256 0.35907526 1.0432701 0.82765915 0.29922593 0.49136903 0.62283443 0.24474693 0.51545871 0.50933115 0.25763912 0.54448365 0.10467057 0.30478711 0.29124101 0.06150538 0.48883963 0.48156552 0.76400489 0.57885921 0.65465996 0.57880072 -0.057641124 0.338954 0.13209579999999999 0.076898761 -0.05898039099999999 -0.076748768 -0.022102371000000003 -0.16132255 0.06865574 0.1921494 -0.05126355900000001 0.068644092 -0.017255661000000002 0.016510036000000002 0.1490497
1.136819 1.1377805 1.1240111000000002 1.0165527 0.95049934 1.0063636 0.89310823 0.65362024 0.88646385 0.94861722 0.5431491999999999 0.85479621 0.44309256 0.35907526 1.0432701 0.82765915 0.29922593 0.49136903 0.62283443 0.24474693 0.51545871 0.50933115 0.25763912 0.54448365 0.10467057 0.30478711 0.29124101 0.06150538 0.48883963 0.48156552 0.76400489 0.57885921 0.65465996 0.57880072 -0.057641124 0.338954 0.13209579999999999 0.076898761 -0.05898039099999999 -0.076748768 -0.022102371000000003 -0.16132255 0.06865574 0.1921494 -0.05126355900000001 0.068644092 -0.017255661000000002 0.016510036000000002 0.1490497 -0.026306048999999998
1.1377805 1.1240111000000002 1.0165527 0.95049934 1.0063636 0.89310823 0.65362024 0.88646385 0.94861722 0.5431491999999999 0.85479621 0.44309256 0.35907526 1.0432701 0.82765915 0.29922593 0.49136903 0.62283443 0.24474693 0.51545871 0.50933115 0.25763912 0.54448365 0.10467057 0.30478711 0.29124101 0.06150538 0.48883963 0.48156552 0.76400489 0.57885921 0.65465996 0.57880072 -0.057641124 0.338954 0.13209579999999999 0.076898761 -0.05898039099999999 -0.076748768 -0.022102371000000003 -0.16132255 0.06865574 0.1921494 -0.05126355900000001 0.068644092 -0.017255661000000002 0.016510036000000002 0.1490497 -0.026306048999999998 0.16546113
