0.65656714 2.4394549999999997 3.7686961 2.5048154 2.0810982 0.58786769 -1.0527939 0.091880465 0.99214593 0.23873695 0.20619455 0.55427393 -0.48057051 -0.60856053 -0.63123276 -0.75097956 -0.9105595999999999 -1.1746287 -0.95275915 -1.173999 -1.2248546999999999 -1.0880795 -1.3026383999999998 -1.3779335 -1.587647 -1.7171806 -1.7041702 -1.7736293 -1.8051685000000002 -1.6335501000000001 -1.8505269 -1.7669636000000002 -1.6500436 -1.4334016 -1.0455713 -0.95910861 -0.65108539 -0.29491825 0.08552100800000001 0.37741574 0.46232903 0.76958732 0.90868507 1.0654491000000001 1.0118724000000001 0.88326502 1.1871739 0.8935629999999999 0.72847378 0.94516327
2.4394549999999997 3.7686961 2.5048154 2.0810982 0.58786769 -1.0527939 0.091880465 0.99214593 0.23873695 0.20619455 0.55427393 -0.48057051 -0.60856053 -0.63123276 -0.75097956 -0.9105595999999999 -1.1746287 -0.95275915 -1.173999 -1.2248546999999999 -1.0880795 -1.3026383999999998 -1.3779335 -1.587647 -1.7171806 -1.7041702 -1.7736293 -1.8051685000000002 -1.6335501000000001 -1.8505269 -1.7669636000000002 -1.6500436 -1.4334016 -1.0455713 -0.95910861 -0.65108539 -0.29491825 0.08552100800000001 0.37741574 0.46232903 0.76958732 0.90868507 1.0654491000000001 1.0118724000000001 0.88326502 1.1871739 0.8935629999999999 0.72847378 0.94516327 0.59859893
3.7686961 2.5048154 2.0810982 0.58786769 -1.0527939 0.091880465 0.99214593 0.23873695 0.20619455 0.55427393 -0.48057051 -0.60856053 -0.63123276 -0.75097956 -0.9105595999999999 -1.1746287 -0.95275915 -1.173999 -1.2248546999999999 -1.0880795 -1.3026383999999998 -1.3779335 -1.587647 -1.7171806 -1.7041702 -1.7736293 -1.8051685000000002 -1.6335501000000001 -1.8505269 -1.7669636000000002 -1.6500436 -1.4334016 -1.0455713 -0.95910861 -0.65108539 -0.29491825 0.08552100800000001 0.37741574 0.46232903 0.76958732 0.90868507 1.0654491000000001 1.0118724000000001 0.88326502 1.1871739 0.8935629999999999 0.72847378 0.94516327 0.59859893 0.55621742
2.5048154 2.0810982 0.58786769 -1.0527939 0.091880465 0.99214593 0.23873695 0.20619455 0.55427393 -0.48057051 -0.60856053 -0.63123276 -0.75097956 -0.9105595999999999 -1.1746287 -0.95275915 -1.173999 -1.2248546999999999 -1.0880795 -1.3026383999999998 -1.3779335 -1.587647 -1.7171806 -1.7041702 -1.7736293 -1.8051685000000002 -1.6335501000000001 -1.8505269 -1.7669636000000002 -1.6500436 -1.4334016 -1.0455713 -0.95910861 -0.65108539 -0.29491825 0.08552100800000001 0.37741574 0.46232903 0.76958732 0.90868507 1.0654491000000001 1.0118724000000001 0.88326502 1.1871739 0.8935629999999999 0.72847378 0.94516327 0.59859893 0.55621742 0.69009435
2.0810982 0.58786769 -1.0527939 0.091880465 0.99214593 0.23873695 0.20619455 0.55427393 -0.48057051 -0.60856053 -0.63123276 -0.75097956 -0.9105595999999999 -1.1746287 -0.95275915 -1.173999 -1.2248546999999999 -1.0880795 -1.3026383999999998 -1.3779335 -1.587647 -1.7171806 -1.7041702 -1.7736293 -1.8051685000000002 -1.6335501000000001 -1.8505269 -1.7669636000000002 -1.6500436 -1.4334016 -1.0455713 -0.95910861 -0.65108539 -0.29491825 0.08552100800000001 0.37741574 0.46232903 0.76958732 0.90868507 1.0654491000000001 1.0118724000000001 0.88326502 1.1871739 0.8935629999999999 0.72847378 0.94516327 0.59859893 0.55621742 0.69009435 0.62736479
0.58786769 -1.0527939 0.091880465 0.99214593 0.23873695 0.20619455 0.55427393 -0.48057051 -0.60856053 -0.63123276 -0.75097956 -0.9105595999999999 -1.1746287 -0.95275915 -1.173999 -1.2248546999999999 -1.0880795 -1.3026383999999998 -1.3779335 -1.587647 -1.7171806 -1.7041702 -1.7736293 -1.8051685000000002 -1.6335501000000001 -1.8505269 -1.7669636000000002 -1.6500436 -1.4334016 -1.0455713 -0.95910861 -0.65108539 -0.29491825 0.08552100800000001 0.37741574 0.46232903 0.76958732 0.90868507 1.0654491000000001 1.0118724000000001 0.88326502 1.1871739 0.8935629999999999 0.72847378 0.94516327 0.59859893 0.55621742 0.69009435 0.62736479 0.59536816
-1.0527939 0.091880465 0.99214593 0.23873695 0.20619455 0.55427393 -0.48057051 -0.60856053 -0.63123276 -0.75097956 -0.9105595999999999 -1.1746287 -0.95275915 -1.173999 -1.2248546999999999 -1.0880795 -1.3026383999999998 -1.3779335 -1.587647 -1.7171806 -1.7041702 -1.7736293 -1.8051685000000002 -1.6335501000000001 -1.8505269 -1.7669636000000002 -1.6500436 -1.4334016 -1.0455713 -0.95910861 -0.65108539 -0.29491825 0.08552100800000001 0.37741574 0.46232903 0.76958732 0.90868507 1.0654491000000001 1.0118724000000001 0.88326502 1.1871739 0.8935629999999999 0.72847378 0.94516327 0.59859893 0.55621742 0.69009435 0.62736479 0.59536816 0.56438527
0.091880465 0.99214593 0.23873695 0.20619455 0.55427393 -0.48057051 -0.60856053 -0.63123276 -0.75097956 -0.9105595999999999 -1.1746287 -0.95275915 -1.173999 -1.2248546999999999 -1.0880795 -1.3026383999999998 -1.3779335 -1.587647 -1.7171806 -1.7041702 -1.7736293 -1.8051685000000002 -1.6335501000000001 -1.8505269 -1.7669636000000002 -1.6500436 -1.4334016 -1.0455713 -0.95910861 -0.65108539 -0.29491825 0.08552100800000001 0.37741574 0.46232903 0.76958732 0.90868507 1.0654491000000001 1.0118724000000001 0.88326502 1.1871739 0.8935629999999999 0.72847378 0.94516327 0.59859893 0.55621742 0.69009435 0.62736479 0.59536816 0.56438527 0.73411269
0.99214593 0.23873695 0.20619455 0.55427393 -0.48057051 -0.60856053 -0.63123276 -0.75097956 -0.9105595999999999 -1.1746287 -0.95275915 -1.173999 -1.2248546999999999 -1.0880795 -1.3026383999999998 -1.3779335 -1.587647 -1.7171806 -1.7041702 -1.7736293 -1.8051685000000002 -1.6335501000000001 -1.8505269 -1.7669636000000002 -1.6500436 -1.4334016 -1.0455713 -0.95910861 -0.65108539 -0.29491825 0.08552100800000001 0.37741574 0.46232903 0.76958732 0.90868507 1.0654491000000001 1.0118724000000001 0.88326502 1.1871739 0.8935629999999999 0.72847378 0.94516327 0.59859893 0.55621742 0.69009435 0.62736479 0.59536816 0.56438527 0.73411269 0.63819072
0.23873695 0.20619455 0.55427393 -0.48057051 -0.60856053 -0.63123276 -0.75097956 -0.9105595999999999 -1.1746287 -0.95275915 -1.173999 -1.2248546999999999 -1.0880795 -1.3026383999999998 -1.3779335 -1.587647 -1.7171806 -1.7041702 -1.7736293 -1.8051685000000002 -1.6335501000000001 -1.8505269 -1.7669636000000002 -1.6500436 -1.4334016 -1.0455713 -0.95910861 -0.65108539 -0.29491825 0.08552100800000001 0.37741574 0.46232903 0.76958732 0.90868507 1.0654491000000001 1.0118724000000001 0.88326502 1.1871739 0.8935629999999999 0.72847378 0.94516327 0.59859893 0.55621742 0.69009435 0.62736479 0.59536816 0.56438527 0.73411269 0.63819072 0.51245173
0.20619455 0.55427393 -0.48057051 -0.60856053 -0.63123276 -0.75097956 -0.9105595999999999 -1.1746287 -0.95275915 -1.173999 -1.2248546999999999 -1.0880795 -1.3026383999999998 -1.3779335 -1.587647 -1.7171806 -1.7041702 -1.7736293 -1.8051685000000002 -1.6335501000000001 -1.8505269 -1.7669636000000002 -1.6500436 -1.4334016 -1.0455713 -0.95910861 -0.65108539 -0.29491825 0.08552100800000001 0.37741574 0.46232903 0.76958732 0.90868507 1.0654491000000001 1.0118724000000001 0.88326502 1.1871739 0.8935629999999999 0.72847378 0.94516327 0.59859893 0.55621742 0.69009435 0.62736479 0.59536816 0.56438527 0.73411269 0.63819072 0.51245173 0.6474743000000001
0.55427393 -0.48057051 -0.60856053 -0.63123276 -0.75097956 -0.9105595999999999 -1.1746287 -0.95275915 -1.173999 -1.2248546999999999 -1.0880795 -1.3026383999999998 -1.3779335 -1.587647 -1.7171806 -1.7041702 -1.7736293 -1.8051685000000002 -1.6335501000000001 -1.8505269 -1.7669636000000002 -1.6500436 -1.4334016 -1.0455713 -0.95910861 -0.65108539 -0.29491825 0.08552100800000001 0.37741574 0.46232903 0.76958732 0.90868507 1.0654491000000001 1.0118724000000001 0.88326502 1.1871739 0.8935629999999999 0.72847378 0.94516327 0.59859893 0.55621742 0.69009435 0.62736479 0.59536816 0.56438527 0.73411269 0.63819072 0.51245173 0.6474743000000001 0.75772934
-0.48057051 -0.60856053 -0.63123276 -0.75097956 -0.9105595999999999 -1.1746287 -0.95275915 -1.173999 -1.2248546999999999 -1.0880795 -1.3026383999999998 -1.3779335 -1.587647 -1.7171806 -1.7041702 -1.7736293 -1.8051685000000002 -1.6335501000000001 -1.8505269 -1.7669636000000002 -1.6500436 -1.4334016 -1.0455713 -0.95910861 -0.65108539 -0.29491825 0.08552100800000001 0.37741574 0.46232903 0.76958732 0.90868507 1.0654491000000001 1.0118724000000001 0.88326502 1.1871739 0.8935629999999999 0.72847378 0.94516327 0.59859893 0.55621742 0.69009435 0.62736479 0.59536816 0.56438527 0.73411269 0.63819072 0.51245173 0.6474743000000001 0.75772934 0.35919609999999996
-0.60856053 -0.63123276 -0.75097956 -0.9105595999999999 -1.1746287 -0.95275915 -1.173999 -1.2248546999999999 -1.0880795 -1.3026383999999998 -1.3779335 -1.587647 -1.7171806 -1.7041702 -1.7736293 -1.8051685000000002 -1.6335501000000001 -1.8505269 -1.7669636000000002 -1.6500436 -1.4334016 -1.0455713 -0.95910861 -0.65108539 -0.29491825 0.08552100800000001 0.37741574 0.46232903 0.76958732 0.90868507 1.0654491000000001 1.0118724000000001 0.88326502 1.1871739 0.8935629999999999 0.72847378 0.94516327 0.59859893 0.55621742 0.69009435 0.62736479 0.59536816 0.56438527 0.73411269 0.63819072 0.51245173 0.6474743000000001 0.75772934 0.35919609999999996 0.59307667
-0.63123276 -0.75097956 -0.9105595999999999 -1.1746287 -0.95275915 -1.173999 -1.2248546999999999 -1.0880795 -1.3026383999999998 -1.3779335 -1.587647 -1.7171806 -1.7041702 -1.7736293 -1.8051685000000002 -1.6335501000000001 -1.8505269 -1.7669636000000002 -1.6500436 -1.4334016 -1.0455713 -0.95910861 -0.65108539 -0.29491825 0.08552100800000001 0.37741574 0.46232903 0.76958732 0.90868507 1.0654491000000001 1.0118724000000001 0.88326502 1.1871739 0.8935629999999999 0.72847378 0.94516327 0.59859893 0.55621742 0.69009435 0.62736479 0.59536816 0.56438527 0.73411269 0.63819072 0.51245173 0.6474743000000001 0.75772934 0.35919609999999996 0.59307667 0.57323765
-0.75097956 -0.9105595999999999 -1.1746287 -0.95275915 -1.173999 -1.2248546999999999 -1.0880795 -1.3026383999999998 -1.3779335 -1.587647 -1.7171806 -1.7041702 -1.7736293 -1.8051685000000002 -1.6335501000000001 -1.8505269 -1.7669636000000002 -1.6500436 -1.4334016 -1.0455713 -0.95910861 -0.65108539 -0.29491825 0.08552100800000001 0.37741574 0.46232903 0.76958732 0.90868507 1.0654491000000001 1.0118724000000001 0.88326502 1.1871739 0.8935629999999999 0.72847378 0.94516327 0.59859893 0.55621742 0.69009435 0.62736479 0.59536816 0.56438527 0.73411269 0.63819072 0.51245173 0.6474743000000001 0.75772934 0.35919609999999996 0.59307667 0.57323765 0.18039386
-0.9105595999999999 -1.1746287 -0.95275915 -1.173999 -1.2248546999999999 -1.0880795 -1.3026383999999998 -1.3779335 -1.587647 -1.7171806 -1.7041702 -1.7736293 -1.8051685000000002 -1.6335501000000001 -1.8505269 -1.7669636000000002 -1.6500436 -1.4334016 -1.0455713 -0.95910861 -0.65108539 -0.29491825 0.08552100800000001 0.37741574 0.46232903 0.76958732 0.90868507 1.0654491000000001 1.0118724000000001 0.88326502 1.1871739 0.8935629999999999 0.72847378 0.94516327 0.59859893 0.55621742 0.69009435 0.62736479 0.59536816 0.56438527 0.73411269 0.63819072 0.51245173 0.6474743000000001 0.75772934 0.35919609999999996 0.59307667 0.57323765 0.18039386 0.54497909
-1.1746287 -0.95275915 -1.173999 -1.2248546999999999 -1.0880795 -1.3026383999999998 -1.3779335 -1.587647 -1.7171806 -1.7041702 -1.7736293 -1.8051685000000002 -1.6335501000000001 -1.8505269 -1.7669636000000002 -1.6500436 -1.4334016 -1.0455713 -0.95910861 -0.65108539 -0.29491825 0.08552100800000001 0.37741574 0.46232903 0.76958732 0.90868507 1.0654491000000001 1.0118724000000001 0.88326502 1.1871739 0.8935629999999999 0.72847378 0.94516327 0.59859893 0.55621742 0.69009435 0.62736479 0.59536816 0.56438527 0.73411269 0.63819072 0.51245173 0.6474743000000001 0.75772934 0.35919609999999996 0.59307667 0.57323765 0.18039386 0.54497909 0.33009122
-0.95275915 -1.173999 -1.2248546999999999 -1.0880795 -1.3026383999999998 -1.3779335 -1.587647 -1.7171806 -1.7041702 -1.7736293 -1.8051685000000002 -1.6335501000000001 -1.8505269 -1.7669636000000002 -1.6500436 -1.4334016 -1.0455713 -0.95910861 -0.65108539 -0.29491825 0.08552100800000001 0.37741574 0.46232903 0.76958732 0.90868507 1.0654491000000001 1.0118724000000001 0.88326502 1.1871739 0.8935629999999999 0.72847378 0.94516327 0.59859893 0.55621742 0.69009435 0.62736479 0.59536816 0.56438527 0.73411269 0.63819072 0.51245173 0.6474743000000001 0.75772934 0.35919609999999996 0.59307667 0.57323765 0.18039386 0.54497909 0.33009122 0.26131178
-1.173999 -1.2248546999999999 -1.0880795 -1.3026383999999998 -1.3779335 -1.587647 -1.7171806 -1.7041702 -1.7736293 -1.8051685000000002 -1.6335501000000001 -1.8505269 -1.7669636000000002 -1.6500436 -1.4334016 -1.0455713 -0.95910861 -0.65108539 -0.29491825 0.08552100800000001 0.37741574 0.46232903 0.76958732 0.90868507 1.0654491000000001 1.0118724000000001 0.88326502 1.1871739 0.8935629999999999 0.72847378 0.94516327 0.59859893 0.55621742 0.69009435 0.62736479 0.59536816 0.56438527 0.73411269 0.63819072 0.51245173 0.6474743000000001 0.75772934 0.35919609999999996 0.59307667 0.57323765 0.18039386 0.54497909 0.33009122 0.26131178 0.34823146
-1.2248546999999999 -1.0880795 -1.3026383999999998 -1.3779335 -1.587647 -1.7171806 -1.7041702 -1.7736293 -1.8051685000000002 -1.6335501000000001 -1.8505269 -1.7669636000000002 -1.6500436 -1.4334016 -1.0455713 -0.95910861 -0.65108539 -0.29491825 0.08552100800000001 0.37741574 0.46232903 0.76958732 0.90868507 1.0654491000000001 1.0118724000000001 0.88326502 1.1871739 0.8935629999999999 0.72847378 0.94516327 0.59859893 0.55621742 0.69009435 0.62736479 0.59536816 0.56438527 0.73411269 0.63819072 0.51245173 0.6474743000000001 0.75772934 0.35919609999999996 0.59307667 0.57323765 0.18039386 0.54497909 0.33009122 0.26131178 0.34823146 0.15802124
-1.0880795 -1.3026383999999998 -1.3779335 -1.587647 -1.7171806 -1.7041702 -1.7736293 -1.8051685000000002 -1.6335501000000001 -1.8505269 -1.7669636000000002 -1.6500436 -1.4334016 -1.0455713 -0.95910861 -0.65108539 -0.29491825 0.08552100800000001 0.37741574 0.46232903 0.76958732 0.90868507 1.0654491000000001 1.0118724000000001 0.88326502 1.1871739 0.8935629999999999 0.72847378 0.94516327 0.59859893 0.55621742 0.69009435 0.62736479 0.59536816 0.56438527 0.73411269 0.63819072 0.51245173 0.6474743000000001 0.75772934 0.35919609999999996 0.59307667 0.57323765 0.18039386 0.54497909 0.33009122 0.26131178 0.34823146 0.15802124 0.20835002
-1.3026383999999998 -1.3779335 -1.587647 -1.7171806 -1.7041702 -1.7736293 -1.8051685000000002 -1.6335501000000001 -1.8505269 -1.7669636000000002 -1.6500436 -1.4334016 -1.0455713 -0.95910861 -0.65108539 -0.29491825 0.08552100800000001 0.37741574 0.46232903 0.76958732 0.90868507 1.0654491000000001 1.0118724000000001 0.88326502 1.1871739 0.8935629999999999 0.72847378 0.94516327 0.59859893 0.55621742 0.69009435 0.62736479 0.59536816 0.56438527 0.73411269 0.63819072 0.51245173 0.6474743000000001 0.75772934 0.35919609999999996 0.59307667 0.57323765 0.18039386 0.54497909 0.33009122 0.26131178 0.34823146 0.15802124 0.20835002 0.14473466
-1.3779335 -1.587647 -1.7171806 -1.7041702 -1.7736293 -1.8051685000000002 -1.6335501000000001 -1.8505269 -1.7669636000000002 -1.6500436 -1.4334016 -1.0455713 -0.95910861 -0.65108539 -0.29491825 0.08552100800000001 0.37741574 0.46232903 0.76958732 0.90868507 1.0654491000000001 1.0118724000000001 0.88326502 1.1871739 0.8935629999999999 0.72847378 0.94516327 0.59859893 0.55621742 0.69009435 0.62736479 0.59536816 0.56438527 0.73411269 0.63819072 0.51245173 0.6474743000000001 0.75772934 0.35919609999999996 0.59307667 0.57323765 0.18039386 0.54497909 0.33009122 0.26131178 0.34823146 0.15802124 0.20835002 0.14473466 0.30454222
-1.587647 -1.7171806 -1.7041702 -1.7736293 -1.8051685000000002 -1.6335501000000001 -1.8505269 -1.7669636000000002 -1.6500436 -1.4334016 -1.0455713 -0.95910861 -0.65108539 -0.29491825 0.08552100800000001 0.37741574 0.46232903 0.76958732 0.90868507 1.0654491000000001 1.0118724000000001 0.88326502 1.1871739 0.8935629999999999 0.72847378 0.94516327 0.59859893 0.55621742 0.69009435 0.62736479 0.59536816 0.56438527 0.73411269 0.63819072 0.51245173 0.6474743000000001 0.75772934 0.35919609999999996 0.59307667 0.57323765 0.18039386 0.54497909 0.33009122 0.26131178 0.34823146 0.15802124 0.20835002 0.14473466 0.30454222 0.57923734
-1.7171806 -1.7041702 -1.7736293 -1.8051685000000002 -1.6335501000000001 -1.8505269 -1.7669636000000002 -1.6500436 -1.4334016 -1.0455713 -0.95910861 -0.65108539 -0.29491825 0.08552100800000001 0.37741574 0.46232903 0.76958732 0.90868507 1.0654491000000001 1.0118724000000001 0.88326502 1.1871739 0.8935629999999999 0.72847378 0.94516327 0.59859893 0.55621742 0.69009435 0.62736479 0.59536816 0.56438527 0.73411269 0.63819072 0.51245173 0.6474743000000001 0.75772934 0.35919609999999996 0.59307667 0.57323765 0.18039386 0.54497909 0.33009122 0.26131178 0.34823146 0.15802124 0.20835002 0.14473466 0.30454222 0.57923734 0.58702684
-1.7041702 -1.7736293 -1.8051685000000002 -1.6335501000000001 -1.8505269 -1.7669636000000002 -1.6500436 -1.4334016 -1.0455713 -0.95910861 -0.65108539 -0.29491825 0.08552100800000001 0.37741574 0.46232903 0.76958732 0.90868507 1.0654491000000001 1.0118724000000001 0.88326502 1.1871739 0.8935629999999999 0.72847378 0.94516327 0.59859893 0.55621742 0.69009435 0.62736479 0.59536816 0.56438527 0.73411269 0.63819072 0.51245173 0.6474743000000001 0.75772934 0.35919609999999996 0.59307667 0.57323765 0.18039386 0.54497909 0.33009122 0.26131178 0.34823146 0.15802124 0.20835002 0.14473466 0.30454222 0.57923734 0.58702684 0.42327712
-1.7736293 -1.8051685000000002 -1.6335501000000001 -1.8505269 -1.7669636000000002 -1.6500436 -1.4334016 -1.0455713 -0.95910861 -0.65108539 -0.29491825 0.08552100800000001 0.37741574 0.46232903 0.76958732 0.90868507 1.0654491000000001 1.0118724000000001 0.88326502 1.1871739 0.8935629999999999 0.72847378 0.94516327 0.59859893 0.55621742 0.69009435 0.62736479 0.59536816 0.56438527 0.73411269 0.63819072 0.51245173 0.6474743000000001 0.75772934 0.35919609999999996 0.59307667 0.57323765 0.18039386 0.54497909 0.33009122 0.26131178 0.34823146 0.15802124 0.20835002 0.14473466 0.30454222 0.57923734 0.58702684 0.42327712 0.67516352
-1.8051685000000002 -1.6335501000000001 -1.8505269 -1.7669636000000002 -1.6500436 -1.4334016 -1.0455713 -0.95910861 -0.65108539 -0.29491825 0.08552100800000001 0.37741574 0.46232903 0.76958732 0.90868507 1.0654491000000001 1.0118724000000001 0.88326502 1.1871739 0.8935629999999999 0.72847378 0.94516327 0.59859893 0.55621742 0.69009435 0.62736479 0.59536816 0.56438527 0.73411269 0.63819072 0.51245173 0.6474743000000001 0.75772934 0.35919609999999996 0.59307667 0.57323765 0.18039386 0.54497909 0.33009122 0.26131178 0.34823146 0.15802124 0.20835002 0.14473466 0.30454222 0.57923734 0.58702684 0.42327712 0.67516352 0.32828563
-1.6335501000000001 -1.8505269 -1.7669636000000002 -1.6500436 -1.4334016 -1.0455713 -0.95910861 -0.65108539 -0.29491825 0.08552100800000001 0.37741574 0.46232903 0.76958732 0.90868507 1.0654491000000001 1.0118724000000001 0.88326502 1.1871739 0.8935629999999999 0.72847378 0.94516327 0.59859893 0.55621742 0.69009435 0.62736479 0.59536816 0.56438527 0.73411269 0.63819072 0.51245173 0.6474743000000001 0.75772934 0.35919609999999996 0.59307667 0.57323765 0.18039386 0.54497909 0.33009122 0.26131178 0.34823146 0.15802124 0.20835002 0.14473466 0.30454222 0.57923734 0.58702684 0.42327712 0.67516352 0.32828563 -0.09694356900000001
-1.8505269 -1.7669636000000002 -1.6500436 -1.4334016 -1.0455713 -0.95910861 -0.65108539 -0.29491825 0.08552100800000001 0.37741574 0.46232903 0.76958732 0.90868507 1.0654491000000001 1.0118724000000001 0.88326502 1.1871739 0.8935629999999999 0.72847378 0.94516327 0.59859893 0.55621742 0.69009435 0.62736479 0.59536816 0.56438527 0.73411269 0.63819072 0.51245173 0.6474743000000001 0.75772934 0.35919609999999996 0.59307667 0.57323765 0.18039386 0.54497909 0.33009122 0.26131178 0.34823146 0.15802124 0.20835002 0.14473466 0.30454222 0.57923734 0.58702684 0.42327712 0.67516352 0.32828563 -0.09694356900000001 0.044244043
-1.7669636000000002 -1.6500436 -1.4334016 -1.0455713 -0.95910861 -0.65108539 -0.29491825 0.08552100800000001 0.37741574 0.46232903 0.76958732 0.90868507 1.0654491000000001 1.0118724000000001 0.88326502 1.1871739 0.8935629999999999 0.72847378 0.94516327 0.59859893 0.55621742 0.69009435 0.62736479 0.59536816 0.56438527 0.73411269 0.63819072 0.51245173 0.6474743000000001 0.75772934 0.35919609999999996 0.59307667 0.57323765 0.18039386 0.54497909 0.33009122 0.26131178 0.34823146 0.15802124 0.20835002 0.14473466 0.30454222 0.57923734 0.58702684 0.42327712 0.67516352 0.32828563 -0.09694356900000001 0.044244043 -0.12724098
-1.6500436 -1.4334016 -1.0455713 -0.95910861 -0.65108539 -0.29491825 0.08552100800000001 0.37741574 0.46232903 0.76958732 0.90868507 1.0654491000000001 1.0118724000000001 0.88326502 1.1871739 0.8935629999999999 0.72847378 0.94516327 0.59859893 0.55621742 0.69009435 0.62736479 0.59536816 0.56438527 0.73411269 0.63819072 0.51245173 0.6474743000000001 0.75772934 0.35919609999999996 0.59307667 0.57323765 0.18039386 0.54497909 0.33009122 0.26131178 0.34823146 0.15802124 0.20835002 0.14473466 0.30454222 0.57923734 0.58702684 0.42327712 0.67516352 0.32828563 -0.09694356900000001 0.044244043 -0.12724098 -0.11493543
-1.4334016 -1.0455713 -0.95910861 -0.65108539 -0.29491825 0.08552100800000001 0.37741574 0.46232903 0.76958732 0.90868507 1.0654491000000001 1.0118724000000001 0.88326502 1.1871739 0.8935629999999999 0.72847378 0.94516327 0.59859893 0.55621742 0.69009435 0.62736479 0.59536816 0.56438527 0.73411269 0.63819072 0.51245173 0.6474743000000001 0.75772934 0.35919609999999996 0.59307667 0.57323765 0.18039386 0.54497909 0.33009122 0.26131178 0.34823146 0.15802124 0.20835002 0.14473466 0.30454222 0.57923734 0.58702684 0.42327712 0.67516352 0.32828563 -0.09694356900000001 0.044244043 -0.12724098 -0.11493543 -0.28178372
-1.0455713 -0.95910861 -0.65108539 -0.29491825 0.08552100800000001 0.37741574 0.46232903 0.76958732 0.90868507 1.0654491000000001 1.0118724000000001 0.88326502 1.1871739 0.8935629999999999 0.72847378 0.94516327 0.59859893 0.55621742 0.69009435 0.62736479 0.59536816 0.56438527 0.73411269 0.63819072 0.51245173 0.6474743000000001 0.75772934 0.35919609999999996 0.59307667 0.57323765 0.18039386 0.54497909 0.33009122 0.26131178 0.34823146 0.15802124 0.20835002 0.14473466 0.30454222 0.57923734 0.58702684 0.42327712 0.67516352 0.32828563 -0.09694356900000001 0.044244043 -0.12724098 -0.11493543 -0.28178372 -0.14773509
-0.95910861 -0.65108539 -0.29491825 0.08552100800000001 0.37741574 0.46232903 0.76958732 0.90868507 1.0654491000000001 1.0118724000000001 0.88326502 1.1871739 0.8935629999999999 0.72847378 0.94516327 0.59859893 0.55621742 0.69009435 0.62736479 0.59536816 0.56438527 0.73411269 0.63819072 0.51245173 0.6474743000000001 0.75772934 0.35919609999999996 0.59307667 0.57323765 0.18039386 0.54497909 0.33009122 0.26131178 0.34823146 0.15802124 0.20835002 0.14473466 0.30454222 0.57923734 0.58702684 0.42327712 0.67516352 0.32828563 -0.09694356900000001 0.044244043 -0.12724098 -0.11493543 -0.28178372 -0.14773509 -0.2858337
-0.65108539 -0.29491825 0.08552100800000001 0.37741574 0.46232903 0.76958732 0.90868507 1.0654491000000001 1.0118724000000001 0.88326502 1.1871739 0.8935629999999999 0.72847378 0.94516327 0.59859893 0.55621742 0.69009435 0.62736479 0.59536816 0.56438527 0.73411269 0.63819072 0.51245173 0.6474743000000001 0.75772934 0.35919609999999996 0.59307667 0.57323765 0.18039386 0.54497909 0.33009122 0.26131178 0.34823146 0.15802124 0.20835002 0.14473466 0.30454222 0.57923734 0.58702684 0.42327712 0.67516352 0.32828563 -0.09694356900000001 0.044244043 -0.12724098 -0.11493543 -0.28178372 -0.14773509 -0.2858337 7.0280533e-05
-0.29491825 0.08552100800000001 0.37741574 0.46232903 0.76958732 0.90868507 1.0654491000000001 1.0118724000000001 0.88326502 1.1871739 0.8935629999999999 0.72847378 0.94516327 0.59859893 0.55621742 0.69009435 0.62736479 0.59536816 0.56438527 0.73411269 0.63819072 0.51245173 0.6474743000000001 0.75772934 0.35919609999999996 0.59307667 0.57323765 0.18039386 0.54497909 0.33009122 0.26131178 0.34823146 0.15802124 0.20835002 0.14473466 0.30454222 0.57923734 0.58702684 0.42327712 0.67516352 0.32828563 -0.09694356900000001 0.044244043 -0.12724098 -0.11493543 -0.28178372 -0.14773509 -0.2858337 7.0280533e-05 -0.39000289
0.08552100800000001 0.37741574 0.46232903 0.76958732 0.90868507 1.0654491000000001 1.0118724000000001 0.88326502 1.1871739 0.8935629999999999 0.72847378 0.94516327 0.59859893 0.55621742 0.69009435 0.62736479 0.59536816 0.56438527 0.73411269 0.63819072 0.51245173 0.6474743000000001 0.75772934 0.35919609999999996 0.59307667 0.57323765 0.18039386 0.54497909 0.33009122 0.26131178 0.34823146 0.15802124 0.20835002 0.14473466 0.30454222 0.57923734 0.58702684 0.42327712 0.67516352 0.32828563 -0.09694356900000001 0.044244043 -0.12724098 -0.11493543 -0.28178372 -0.14773509 -0.2858337 7.0280533e-05 -0.39000289 -0.47257244
0.37741574 0.46232903 0.76958732 0.90868507 1.0654491000000001 1.0118724000000001 0.88326502 1.1871739 0.8935629999999999 0.72847378 0.94516327 0.59859893 0.55621742 0.69009435 0.62736479 0.59536816 0.56438527 0.73411269 0.63819072 0.51245173 0.6474743000000001 0.75772934 0.35919609999999996 0.59307667 0.57323765 0.18039386 0.54497909 0.33009122 0.26131178 0.34823146 0.15802124 0.20835002 0.14473466 0.30454222 0.57923734 0.58702684 0.42327712 0.67516352 0.32828563 -0.09694356900000001 0.044244043 -0.12724098 -0.11493543 -0.28178372 -0.14773509 -0.2858337 7.0280533e-05 -0.39000289 -0.47257244 -0.10795655
0.46232903 0.76958732 0.90868507 1.0654491000000001 1.0118724000000001 0.88326502 1.1871739 0.8935629999999999 0.72847378 0.94516327 0.59859893 0.55621742 0.69009435 0.62736479 0.59536816 0.56438527 0.73411269 0.63819072 0.51245173 0.6474743000000001 0.75772934 0.35919609999999996 0.59307667 0.57323765 0.18039386 0.54497909 0.33009122 0.26131178 0.34823146 0.15802124 0.20835002 0.14473466 0.30454222 0.57923734 0.58702684 0.42327712 0.67516352 0.32828563 -0.09694356900000001 0.044244043 -0.12724098 -0.11493543 -0.28178372 -0.14773509 -0.2858337 7.0280533e-05 -0.39000289 -0.47257244 -0.10795655 -0.42759193
0.76958732 0.90868507 1.0654491000000001 1.0118724000000001 0.88326502 1.1871739 0.8935629999999999 0.72847378 0.94516327 0.59859893 0.55621742 0.69009435 0.62736479 0.59536816 0.56438527 0.73411269 0.63819072 0.51245173 0.6474743000000001 0.75772934 0.35919609999999996 0.59307667 0.57323765 0.18039386 0.54497909 0.33009122 0.26131178 0.34823146 0.15802124 0.20835002 0.14473466 0.30454222 0.57923734 0.58702684 0.42327712 0.67516352 0.32828563 -0.09694356900000001 0.044244043 -0.12724098 -0.11493543 -0.28178372 -0.14773509 -0.2858337 7.0280533e-05 -0.39000289 -0.47257244 -0.10795655 -0.42759193 -0.37007859
0.90868507 1.0654491000000001 1.0118724000000001 0.88326502 1.1871739 0.8935629999999999 0.72847378 0.94516327 0.59859893 0.55621742 0.69009435 0.62736479 0.59536816 0.56438527 0.73411269 0.63819072 0.51245173 0.6474743000000001 0.75772934 0.35919609999999996 0.59307667 0.57323765 0.18039386 0.54497909 0.33009122 0.26131178 0.34823146 0.15802124 0.20835002 0.14473466 0.30454222 0.57923734 0.58702684 0.42327712 0.67516352 0.32828563 -0.09694356900000001 0.044244043 -0.12724098 -0.11493543 -0.28178372 -0.14773509 -0.2858337 7.0280533e-05 -0.39000289 -0.47257244 -0.10795655 -0.42759193 -0.37007859 -0.35622477
1.0654491000000001 1.0118724000000001 0.88326502 1.1871739 0.8935629999999999 0.72847378 0.94516327 0.59859893 0.55621742 0.69009435 0.62736479 0.59536816 0.56438527 0.73411269 0.63819072 0.51245173 0.6474743000000001 0.75772934 0.35919609999999996 0.59307667 0.57323765 0.18039386 0.54497909 0.33009122 0.26131178 0.34823146 0.15802124 0.20835002 0.14473466 0.30454222 0.57923734 0.58702684 0.42327712 0.67516352 0.32828563 -0.09694356900000001 0.044244043 -0.12724098 -0.11493543 -0.28178372 -0.14773509 -0.2858337 7.0280533e-05 -0.39000289 -0.47257244 -0.10795655 -0.42759193 -0.37007859 -0.35622477 -0.42782566
1.0118724000000001 0.88326502 1.1871739 0.8935629999999999 0.72847378 0.94516327 0.59859893 0.55621742 0.69009435 0.62736479 0.59536816 0.56438527 0.73411269 0.63819072 0.51245173 0.6474743000000001 0.75772934 0.35919609999999996 0.59307667 0.57323765 0.18039386 0.54497909 0.33009122 0.26131178 0.34823146 0.15802124 0.20835002 0.14473466 0.30454222 0.57923734 0.58702684 0.42327712 0.67516352 0.32828563 -0.09694356900000001 0.044244043 -0.12724098 -0.11493543 -0.28178372 -0.14773509 -0.2858337 7.0280533e-05 -0.39000289 -0.47257244 -0.10795655 -0.42759193 -0.37007859 -0.35622477 -0.42782566 -0.37963448
0.88326502 1.1871739 0.8935629999999999 0.72847378 0.94516327 0.59859893 0.55621742 0.69009435 0.62736479 0.59536816 0.56438527 0.73411269 0.63819072 0.51245173 0.6474743000000001 0.75772934 0.35919609999999996 0.59307667 0.57323765 0.18039386 0.54497909 0.33009122 0.26131178 0.34823146 0.15802124 0.20835002 0.14473466 0.30454222 0.57923734 0.58702684 0.42327712 0.67516352 0.32828563 -0.09694356900000001 0.044244043 -0.12724098 -0.11493543 -0.28178372 -0.14773509 -0.2858337 7.0280533e-05 -0.39000289 -0.47257244 -0.10795655 -0.42759193 -0.37007859 -0.35622477 -0.42782566 -0.37963448 -0.3576884
1.1871739 0.8935629999999999 0.72847378 0.94516327 0.59859893 0.55621742 0.69009435 0.62736479 0.59536816 0.56438527 0.73411269 0.63819072 0.51245173 0.6474743000000001 0.75772934 0.35919609999999996 0.59307667 0.57323765 0.18039386 0.54497909 0.33009122 0.26131178 0.34823146 0.15802124 0.20835002 0.14473466 0.30454222 0.57923734 0.58702684 0.42327712 0.67516352 0.32828563 -0.09694356900000001 0.044244043 -0.12724098 -0.11493543 -0.28178372 -0.14773509 -0.2858337 7.0280533e-05 -0.39000289 -0.47257244 -0.10795655 -0.42759193 -0.37007859 -0.35622477 -0.42782566 -0.37963448 -0.3576884 -0.059085421
