1.2571378999999998 2.7809697 3.2871348 2.700352 0.86951154 0.75423951 1.5212668 1.0206125 1.0330029 0.91998275 0.0040308763 -0.4328252 -0.43523685 -0.64467814 -0.80723278 -0.78744574 -0.89934918 -0.99303352 -1.1098698999999999 -1.1504357 -1.2722753 -1.3851091999999998 -1.4737069 -1.5216448999999999 -1.6190877000000001 -1.8408816000000003 -1.7668947 -1.9955843 -2.1403107999999995 -1.9179245999999999 -1.9873366999999997 -1.8178444 -1.7714289 -1.4208218000000001 -0.99477631 -0.73744766 -0.36325566 0.01113692 0.3764232 0.45803705 0.68402413 0.78140676 0.80419809 0.77813236 0.8654643 0.73073193 0.5854085 0.65586063 0.60165239 0.60567876
2.7809697 3.2871348 2.700352 0.86951154 0.75423951 1.5212668 1.0206125 1.0330029 0.91998275 0.0040308763 -0.4328252 -0.43523685 -0.64467814 -0.80723278 -0.78744574 -0.89934918 -0.99303352 -1.1098698999999999 -1.1504357 -1.2722753 -1.3851091999999998 -1.4737069 -1.5216448999999999 -1.6190877000000001 -1.8408816000000003 -1.7668947 -1.9955843 -2.1403107999999995 -1.9179245999999999 -1.9873366999999997 -1.8178444 -1.7714289 -1.4208218000000001 -0.99477631 -0.73744766 -0.36325566 0.01113692 0.3764232 0.45803705 0.68402413 0.78140676 0.80419809 0.77813236 0.8654643 0.73073193 0.5854085 0.65586063 0.60165239 0.60567876 0.53661635
3.2871348 2.700352 0.86951154 0.75423951 1.5212668 1.0206125 1.0330029 0.91998275 0.0040308763 -0.4328252 -0.43523685 -0.64467814 -0.80723278 -0.78744574 -0.89934918 -0.99303352 -1.1098698999999999 -1.1504357 -1.2722753 -1.3851091999999998 -1.4737069 -1.5216448999999999 -1.6190877000000001 -1.8408816000000003 -1.7668947 -1.9955843 -2.1403107999999995 -1.9179245999999999 -1.9873366999999997 -1.8178444 -1.7714289 -1.4208218000000001 -0.99477631 -0.73744766 -0.36325566 0.01113692 0.3764232 0.45803705 0.68402413 0.78140676 0.80419809 0.77813236 0.8654643 0.73073193 0.5854085 0.65586063 0.60165239 0.60567876 0.53661635 0.53257847
2.700352 0.86951154 0.75423951 1.5212668 1.0206125 1.0330029 0.91998275 0.0040308763 -0.4328252 -0.43523685 -0.64467814 -0.80723278 -0.78744574 -0.89934918 -0.99303352 -1.1098698999999999 -1.1504357 -1.2722753 -1.3851091999999998 -1.4737069 -1.5216448999999999 -1.6190877000000001 -1.8408816000000003 -1.7668947 -1.9955843 -2.1403107999999995 -1.9179245999999999 -1.9873366999999997 -1.8178444 -1.7714289 -1.4208218000000001 -0.99477631 -0.73744766 -0.36325566 0.01113692 0.3764232 0.45803705 0.68402413 0.78140676 0.80419809 0.77813236 0.8654643 0.73073193 0.5854085 0.65586063 0.60165239 0.60567876 0.53661635 0.53257847 0.6359821
0.86951154 0.75423951 1.5212668 1.0206125 1.0330029 0.91998275 0.0040308763 -0.4328252 -0.43523685 -0.64467814 -0.80723278 -0.78744574 -0.89934918 -0.99303352 -1.1098698999999999 -1.1504357 -1.2722753 -1.3851091999999998 -1.4737069 -1.5216448999999999 -1.6190877000000001 -1.8408816000000003 -1.7668947 -1.9955843 -2.1403107999999995 -1.9179245999999999 -1.9873366999999997 -1.8178444 -1.7714289 -1.4208218000000001 -0.99477631 -0.73744766 -0.36325566 0.01113692 0.3764232 0.45803705 0.68402413 0.78140676 0.80419809 0.77813236 0.8654643 0.73073193 0.5854085 0.65586063 0.60165239 0.60567876 0.53661635 0.53257847 0.6359821 0.53099612
0.75423951 1.5212668 1.0206125 1.0330029 0.91998275 0.0040308763 -0.4328252 -0.43523685 -0.64467814 -0.80723278 -0.78744574 -0.89934918 -0.99303352 -1.1098698999999999 -1.1504357 -1.2722753 -1.3851091999999998 -1.4737069 -1.5216448999999999 -1.6190877000000001 -1.8408816000000003 -1.7668947 -1.9955843 -2.1403107999999995 -1.9179245999999999 -1.9873366999999997 -1.8178444 -1.7714289 -1.4208218000000001 -0.99477631 -0.73744766 -0.36325566 0.01113692 0.3764232 0.45803705 0.68402413 0.78140676 0.80419809 0.77813236 0.8654643 0.73073193 0.5854085 0.65586063 0.60165239 0.60567876 0.53661635 0.53257847 0.6359821 0.53099612 0.55949644
1.5212668 1.0206125 1.0330029 0.91998275 0.0040308763 -0.4328252 -0.43523685 -0.64467814 -0.80723278 -0.78744574 -0.89934918 -0.99303352 -1.1098698999999999 -1.1504357 -1.2722753 -1.3851091999999998 -1.4737069 -1.5216448999999999 -1.6190877000000001 -1.8408816000000003 -1.7668947 -1.9955843 -2.1403107999999995 -1.9179245999999999 -1.9873366999999997 -1.8178444 -1.7714289 -1.4208218000000001 -0.99477631 -0.73744766 -0.36325566 0.01113692 0.3764232 0.45803705 0.68402413 0.78140676 0.80419809 0.77813236 0.8654643 0.73073193 0.5854085 0.65586063 0.60165239 0.60567876 0.53661635 0.53257847 0.6359821 0.53099612 0.55949644 0.54941496
1.0206125 1.0330029 0.91998275 0.0040308763 -0.4328252 -0.43523685 -0.64467814 -0.80723278 -0.78744574 -0.89934918 -0.99303352 -1.1098698999999999 -1.1504357 -1.2722753 -1.3851091999999998 -1.4737069 -1.5216448999999999 -1.6190877000000001 -1.8408816000000003 -1.7668947 -1.9955843 -2.1403107999999995 -1.9179245999999999 -1.9873366999999997 -1.8178444 -1.7714289 -1.4208218000000001 -0.99477631 -0.73744766 -0.36325566 0.01113692 0.3764232 0.45803705 0.68402413 0.78140676 0.80419809 0.77813236 0.8654643 0.73073193 0.5854085 0.65586063 0.60165239 0.60567876 0.53661635 0.53257847 0.6359821 0.53099612 0.55949644 0.54941496 0.50059776
1.0330029 0.91998275 0.0040308763 -0.4328252 -0.43523685 -0.64467814 -0.80723278 -0.78744574 -0.89934918 -0.99303352 -1.1098698999999999 -1.1504357 -1.2722753 -1.3851091999999998 -1.4737069 -1.5216448999999999 -1.6190877000000001 -1.8408816000000003 -1.7668947 -1.9955843 -2.1403107999999995 -1.9179245999999999 -1.9873366999999997 -1.8178444 -1.7714289 -1.4208218000000001 -0.99477631 -0.73744766 -0.36325566 0.01113692 0.3764232 0.45803705 0.68402413 0.78140676 0.80419809 0.77813236 0.8654643 0.73073193 0.5854085 0.65586063 0.60165239 0.60567876 0.53661635 0.53257847 0.6359821 0.53099612 0.55949644 0.54941496 0.50059776 0.49216999
0.91998275 0.0040308763 -0.4328252 -0.43523685 -0.64467814 -0.80723278 -0.78744574 -0.89934918 -0.99303352 -1.1098698999999999 -1.1504357 -1.2722753 -1.3851091999999998 -1.4737069 -1.5216448999999999 -1.6190877000000001 -1.8408816000000003 -1.7668947 -1.9955843 -2.1403107999999995 -1.9179245999999999 -1.9873366999999997 -1.8178444 -1.7714289 -1.4208218000000001 -0.99477631 -0.73744766 -0.36325566 0.01113692 0.3764232 0.45803705 0.68402413 0.78140676 0.80419809 0.77813236 0.8654643 0.73073193 0.5854085 0.65586063 0.60165239 0.60567876 0.53661635 0.53257847 0.6359821 0.53099612 0.55949644 0.54941496 0.50059776 0.49216999 0.42445282
0.0040308763 -0.4328252 -0.43523685 -0.64467814 -0.80723278 -0.78744574 -0.89934918 -0.99303352 -1.1098698999999999 -1.1504357 -1.2722753 -1.3851091999999998 -1.4737069 -1.5216448999999999 -1.6190877000000001 -1.8408816000000003 -1.7668947 -1.9955843 -2.1403107999999995 -1.9179245999999999 -1.9873366999999997 -1.8178444 -1.7714289 -1.4208218000000001 -0.99477631 -0.73744766 -0.36325566 0.01113692 0.3764232 0.45803705 0.68402413 0.78140676 0.80419809 0.77813236 0.8654643 0.73073193 0.5854085 0.65586063 0.60165239 0.60567876 0.53661635 0.53257847 0.6359821 0.53099612 0.55949644 0.54941496 0.50059776 0.49216999 0.42445282 0.46236985
-0.4328252 -0.43523685 -0.64467814 -0.80723278 -0.78744574 -0.89934918 -0.99303352 -1.1098698999999999 -1.1504357 -1.2722753 -1.3851091999999998 -1.4737069 -1.5216448999999999 -1.6190877000000001 -1.8408816000000003 -1.7668947 -1.9955843 -2.1403107999999995 -1.9179245999999999 -1.9873366999999997 -1.8178444 -1.7714289 -1.4208218000000001 -0.99477631 -0.73744766 -0.36325566 0.01113692 0.3764232 0.45803705 0.68402413 0.78140676 0.80419809 0.77813236 0.8654643 0.73073193 0.5854085 0.65586063 0.60165239 0.60567876 0.53661635 0.53257847 0.6359821 0.53099612 0.55949644 0.54941496 0.50059776 0.49216999 0.42445282 0.46236985 0.33620966
-0.43523685 -0.64467814 -0.80723278 -0.78744574 -0.89934918 -0.99303352 -1.1098698999999999 -1.1504357 -1.2722753 -1.3851091999999998 -1.4737069 -1.5216448999999999 -1.6190877000000001 -1.8408816000000003 -1.7668947 -1.9955843 -2.1403107999999995 -1.9179245999999999 -1.9873366999999997 -1.8178444 -1.7714289 -1.4208218000000001 -0.99477631 -0.73744766 -0.36325566 0.01113692 0.3764232 0.45803705 0.68402413 0.78140676 0.80419809 0.77813236 0.8654643 0.73073193 0.5854085 0.65586063 0.60165239 0.60567876 0.53661635 0.53257847 0.6359821 0.53099612 0.55949644 0.54941496 0.50059776 0.49216999 0.42445282 0.46236985 0.33620966 0.35603203
-0.64467814 -0.80723278 -0.78744574 -0.89934918 -0.99303352 -1.1098698999999999 -1.1504357 -1.2722753 -1.3851091999999998 -1.4737069 -1.5216448999999999 -1.6190877000000001 -1.8408816000000003 -1.7668947 -1.9955843 -2.1403107999999995 -1.9179245999999999 -1.9873366999999997 -1.8178444 -1.7714289 -1.4208218000000001 -0.99477631 -0.73744766 -0.36325566 0.01113692 0.3764232 0.45803705 0.68402413 0.78140676 0.80419809 0.77813236 0.8654643 0.73073193 0.5854085 0.65586063 0.60165239 0.60567876 0.53661635 0.53257847 0.6359821 0.53099612 0.55949644 0.54941496 0.50059776 0.49216999 0.42445282 0.46236985 0.33620966 0.35603203 0.43532801
-0.80723278 -0.78744574 -0.89934918 -0.99303352 -1.1098698999999999 -1.1504357 -1.2722753 -1.3851091999999998 -1.4737069 -1.5216448999999999 -1.6190877000000001 -1.8408816000000003 -1.7668947 -1.9955843 -2.1403107999999995 -1.9179245999999999 -1.9873366999999997 -1.8178444 -1.7714289 -1.4208218000000001 -0.99477631 -0.73744766 -0.36325566 0.01113692 0.3764232 0.45803705 0.68402413 0.78140676 0.80419809 0.77813236 0.8654643 0.73073193 0.5854085 0.65586063 0.60165239 0.60567876 0.53661635 0.53257847 0.6359821 0.53099612 0.55949644 0.54941496 0.50059776 0.49216999 0.42445282 0.46236985 0.33620966 0.35603203 0.43532801 0.34044294
-0.78744574 -0.89934918 -0.99303352 -1.1098698999999999 -1.1504357 -1.2722753 -1.3851091999999998 -1.4737069 -1.5216448999999999 -1.6190877000000001 -1.8408816000000003 -1.7668947 -1.9955843 -2.1403107999999995 -1.9179245999999999 -1.9873366999999997 -1.8178444 -1.7714289 -1.4208218000000001 -0.99477631 -0.73744766 -0.36325566 0.01113692 0.3764232 0.45803705 0.68402413 0.78140676 0.80419809 0.77813236 0.8654643 0.73073193 0.5854085 0.65586063 0.60165239 0.60567876 0.53661635 0.53257847 0.6359821 0.53099612 0.55949644 0.54941496 0.50059776 0.49216999 0.42445282 0.46236985 0.33620966 0.35603203 0.43532801 0.34044294 0.28557744
-0.89934918 -0.99303352 -1.1098698999999999 -1.1504357 -1.2722753 -1.3851091999999998 -1.4737069 -1.5216448999999999 -1.6190877000000001 -1.8408816000000003 -1.7668947 -1.9955843 -2.1403107999999995 -1.9179245999999999 -1.9873366999999997 -1.8178444 -1.7714289 -1.4208218000000001 -0.99477631 -0.73744766 -0.36325566 0.01113692 0.3764232 0.45803705 0.68402413 0.78140676 0.80419809 0.77813236 0.8654643 0.73073193 0.5854085 0.65586063 0.60165239 0.60567876 0.53661635 0.53257847 0.6359821 0.53099612 0.55949644 0.54941496 0.50059776 0.49216999 0.42445282 0.46236985 0.33620966 0.35603203 0.43532801 0.34044294 0.28557744 0.23317215
-0.99303352 -1.1098698999999999 -1.1504357 -1.2722753 -1.3851091999999998 -1.4737069 -1.5216448999999999 -1.6190877000000001 -1.8408816000000003 -1.7668947 -1.9955843 -2.1403107999999995 -1.9179245999999999 -1.9873366999999997 -1.8178444 -1.7714289 -1.4208218000000001 -0.99477631 -0.73744766 -0.36325566 0.01113692 0.3764232 0.45803705 0.68402413 0.78140676 0.80419809 0.77813236 0.8654643 0.73073193 0.5854085 0.65586063 0.60165239 0.60567876 0.53661635 0.53257847 0.6359821 0.53099612 0.55949644 0.54941496 0.50059776 0.49216999 0.42445282 0.46236985 0.33620966 0.35603203 0.43532801 0.34044294 0.28557744 0.23317215 0.31345426
-1.1098698999999999 -1.1504357 -1.2722753 -1.3851091999999998 -1.4737069 -1.5216448999999999 -1.6190877000000001 -1.8408816000000003 -1.7668947 -1.9955843 -2.1403107999999995 -1.9179245999999999 -1.9873366999999997 -1.8178444 -1.7714289 -1.4208218000000001 -0.99477631 -0.73744766 -0.36325566 0.01113692 0.3764232 0.45803705 0.68402413 0.78140676 0.80419809 0.77813236 0.8654643 0.73073193 0.5854085 0.65586063 0.60165239 0.60567876 0.53661635 0.53257847 0.6359821 0.53099612 0.55949644 0.54941496 0.50059776 0.49216999 0.42445282 0.46236985 0.33620966 0.35603203 0.43532801 0.34044294 0.28557744 0.23317215 0.31345426 0.30001874
-1.1504357 -1.2722753 -1.3851091999999998 -1.4737069 -1.5216448999999999 -1.6190877000000001 -1.8408816000000003 -1.7668947 -1.9955843 -2.1403107999999995 -1.9179245999999999 -1.9873366999999997 -1.8178444 -1.7714289 -1.4208218000000001 -0.99477631 -0.73744766 -0.36325566 0.01113692 0.3764232 0.45803705 0.68402413 0.78140676 0.80419809 0.77813236 0.8654643 0.73073193 0.5854085 0.65586063 0.60165239 0.60567876 0.53661635 0.53257847 0.6359821 0.53099612 0.55949644 0.54941496 0.50059776 0.49216999 0.42445282 0.46236985 0.33620966 0.35603203 0.43532801 0.34044294 0.28557744 0.23317215 0.31345426 0.30001874 0.17777537
-1.2722753 -1.3851091999999998 -1.4737069 -1.5216448999999999 -1.6190877000000001 -1.8408816000000003 -1.7668947 -1.9955843 -2.1403107999999995 -1.9179245999999999 -1.9873366999999997 -1.8178444 -1.7714289 -1.4208218000000001 -0.99477631 -0.73744766 -0.36325566 0.01113692 0.3764232 0.45803705 0.68402413 0.78140676 0.80419809 0.77813236 0.8654643 0.73073193 0.5854085 0.65586063 0.60165239 0.60567876 0.53661635 0.53257847 0.6359821 0.53099612 0.55949644 0.54941496 0.50059776 0.49216999 0.42445282 0.46236985 0.33620966 0.35603203 0.43532801 0.34044294 0.28557744 0.23317215 0.31345426 0.30001874 0.17777537 0.16156702
-1.3851091999999998 -1.4737069 -1.5216448999999999 -1.6190877000000001 -1.8408816000000003 -1.7668947 -1.9955843 -2.1403107999999995 -1.9179245999999999 -1.9873366999999997 -1.8178444 -1.7714289 -1.4208218000000001 -0.99477631 -0.73744766 -0.36325566 0.01113692 0.3764232 0.45803705 0.68402413 0.78140676 0.80419809 0.77813236 0.8654643 0.73073193 0.5854085 0.65586063 0.60165239 0.60567876 0.53661635 0.53257847 0.6359821 0.53099612 0.55949644 0.54941496 0.50059776 0.49216999 0.42445282 0.46236985 0.33620966 0.35603203 0.43532801 0.34044294 0.28557744 0.23317215 0.31345426 0.30001874 0.17777537 0.16156702 0.22713739
-1.4737069 -1.5216448999999999 -1.6190877000000001 -1.8408816000000003 -1.7668947 -1.9955843 -2.1403107999999995 -1.9179245999999999 -1.9873366999999997 -1.8178444 -1.7714289 -1.4208218000000001 -0.99477631 -0.73744766 -0.36325566 0.01113692 0.3764232 0.45803705 0.68402413 0.78140676 0.80419809 0.77813236 0.8654643 0.73073193 0.5854085 0.65586063 0.60165239 0.60567876 0.53661635 0.53257847 0.6359821 0.53099612 0.55949644 0.54941496 0.50059776 0.49216999 0.42445282 0.46236985 0.33620966 0.35603203 0.43532801 0.34044294 0.28557744 0.23317215 0.31345426 0.30001874 0.17777537 0.16156702 0.22713739 0.15108552
-1.5216448999999999 -1.6190877000000001 -1.8408816000000003 -1.7668947 -1.9955843 -2.1403107999999995 -1.9179245999999999 -1.9873366999999997 -1.8178444 -1.7714289 -1.4208218000000001 -0.99477631 -0.73744766 -0.36325566 0.01113692 0.3764232 0.45803705 0.68402413 0.78140676 0.80419809 0.77813236 0.8654643 0.73073193 0.5854085 0.65586063 0.60165239 0.60567876 0.53661635 0.53257847 0.6359821 0.53099612 0.55949644 0.54941496 0.50059776 0.49216999 0.42445282 0.46236985 0.33620966 0.35603203 0.43532801 0.34044294 0.28557744 0.23317215 0.31345426 0.30001874 0.17777537 0.16156702 0.22713739 0.15108552 0.12896749
-1.6190877000000001 -1.8408816000000003 -1.7668947 -1.9955843 -2.1403107999999995 -1.9179245999999999 -1.9873366999999997 -1.8178444 -1.7714289 -1.4208218000000001 -0.99477631 -0.73744766 -0.36325566 0.01113692 0.3764232 0.45803705 0.68402413 0.78140676 0.80419809 0.77813236 0.8654643 0.73073193 0.5854085 0.65586063 0.60165239 0.60567876 0.53661635 0.53257847 0.6359821 0.53099612 0.55949644 0.54941496 0.50059776 0.49216999 0.42445282 0.46236985 0.33620966 0.35603203 0.43532801 0.34044294 0.28557744 0.23317215 0.31345426 0.30001874 0.17777537 0.16156702 0.22713739 0.15108552 0.12896749 0.32105873
-1.8408816000000003 -1.7668947 -1.9955843 -2.1403107999999995 -1.9179245999999999 -1.9873366999999997 -1.8178444 -1.7714289 -1.4208218000000001 -0.99477631 -0.73744766 -0.36325566 0.01113692 0.3764232 0.45803705 0.68402413 0.78140676 0.80419809 0.77813236 0.8654643 0.73073193 0.5854085 0.65586063 0.60165239 0.60567876 0.53661635 0.53257847 0.6359821 0.53099612 0.55949644 0.54941496 0.50059776 0.49216999 0.42445282 0.46236985 0.33620966 0.35603203 0.43532801 0.34044294 0.28557744 0.23317215 0.31345426 0.30001874 0.17777537 0.16156702 0.22713739 0.15108552 0.12896749 0.32105873 0.55903857
-1.7668947 -1.9955843 -2.1403107999999995 -1.9179245999999999 -1.9873366999999997 -1.8178444 -1.7714289 -1.4208218000000001 -0.99477631 -0.73744766 -0.36325566 0.01113692 0.3764232 0.45803705 0.68402413 0.78140676 0.80419809 0.77813236 0.8654643 0.73073193 0.5854085 0.65586063 0.60165239 0.60567876 0.53661635 0.53257847 0.6359821 0.53099612 0.55949644 0.54941496 0.50059776 0.49216999 0.42445282 0.46236985 0.33620966 0.35603203 0.43532801 0.34044294 0.28557744 0.23317215 0.31345426 0.30001874 0.17777537 0.16156702 0.22713739 0.15108552 0.12896749 0.32105873 0.55903857 0.60961813
-1.9955843 -2.1403107999999995 -1.9179245999999999 -1.9873366999999997 -1.8178444 -1.7714289 -1.4208218000000001 -0.99477631 -0.73744766 -0.36325566 0.01113692 0.3764232 0.45803705 0.68402413 0.78140676 0.80419809 0.77813236 0.8654643 0.73073193 0.5854085 0.65586063 0.60165239 0.60567876 0.53661635 0.53257847 0.6359821 0.53099612 0.55949644 0.54941496 0.50059776 0.49216999 0.42445282 0.46236985 0.33620966 0.35603203 0.43532801 0.34044294 0.28557744 0.23317215 0.31345426 0.30001874 0.17777537 0.16156702 0.22713739 0.15108552 0.12896749 0.32105873 0.55903857 0.60961813 0.54140162
-2.1403107999999995 -1.9179245999999999 -1.9873366999999997 -1.8178444 -1.7714289 -1.4208218000000001 -0.99477631 -0.73744766 -0.36325566 0.01113692 0.3764232 0.45803705 0.68402413 0.78140676 0.80419809 0.77813236 0.8654643 0.73073193 0.5854085 0.65586063 0.60165239 0.60567876 0.53661635 0.53257847 0.6359821 0.53099612 0.55949644 0.54941496 0.50059776 0.49216999 0.42445282 0.46236985 0.33620966 0.35603203 0.43532801 0.34044294 0.28557744 0.23317215 0.31345426 0.30001874 0.17777537 0.16156702 0.22713739 0.15108552 0.12896749 0.32105873 0.55903857 0.60961813 0.54140162 0.39574596
-1.9179245999999999 -1.9873366999999997 -1.8178444 -1.7714289 -1.4208218000000001 -0.99477631 -0.73744766 -0.36325566 0.01113692 0.3764232 0.45803705 0.68402413 0.78140676 0.80419809 0.77813236 0.8654643 0.73073193 0.5854085 0.65586063 0.60165239 0.60567876 0.53661635 0.53257847 0.6359821 0.53099612 0.55949644 0.54941496 0.50059776 0.49216999 0.42445282 0.46236985 0.33620966 0.35603203 0.43532801 0.34044294 0.28557744 0.23317215 0.31345426 0.30001874 0.17777537 0.16156702 0.22713739 0.15108552 0.12896749 0.32105873 0.55903857 0.60961813 0.54140162 0.39574596 0.21263311
-1.9873366999999997 -1.8178444 -1.7714289 -1.4208218000000001 -0.99477631 -0.73744766 -0.36325566 0.01113692 0.3764232 0.45803705 0.68402413 0.78140676 0.80419809 0.77813236 0.8654643 0.73073193 0.5854085 0.65586063 0.60165239 0.60567876 0.53661635 0.53257847 0.6359821 0.53099612 0.55949644 0.54941496 0.50059776 0.49216999 0.42445282 0.46236985 0.33620966 0.35603203 0.43532801 0.34044294 0.28557744 0.23317215 0.31345426 0.30001874 0.17777537 0.16156702 0.22713739 0.15108552 0.12896749 0.32105873 0.55903857 0.60961813 0.54140162 0.39574596 0.21263311 0.077601894
-1.8178444 -1.7714289 -1.4208218000000001 -0.99477631 -0.73744766 -0.36325566 0.01113692 0.3764232 0.45803705 0.68402413 0.78140676 0.80419809 0.77813236 0.8654643 0.73073193 0.5854085 0.65586063 0.60165239 0.60567876 0.53661635 0.53257847 0.6359821 0.53099612 0.55949644 0.54941496 0.50059776 0.49216999 0.42445282 0.46236985 0.33620966 0.35603203 0.43532801 0.34044294 0.28557744 0.23317215 0.31345426 0.30001874 0.17777537 0.16156702 0.22713739 0.15108552 0.12896749 0.32105873 0.55903857 0.60961813 0.54140162 0.39574596 0.21263311 0.077601894 0.062430149000000004
-1.7714289 -1.4208218000000001 -0.99477631 -0.73744766 -0.36325566 0.01113692 0.3764232 0.45803705 0.68402413 0.78140676 0.80419809 0.77813236 0.8654643 0.73073193 0.5854085 0.65586063 0.60165239 0.60567876 0.53661635 0.53257847 0.6359821 0.53099612 0.55949644 0.54941496 0.50059776 0.49216999 0.42445282 0.46236985 0.33620966 0.35603203 0.43532801 0.34044294 0.28557744 0.23317215 0.31345426 0.30001874 0.17777537 0.16156702 0.22713739 0.15108552 0.12896749 0.32105873 0.55903857 0.60961813 0.54140162 0.39574596 0.21263311 0.077601894 0.062430149000000004 0.043606603
-1.4208218000000001 -0.99477631 -0.73744766 -0.36325566 0.01113692 0.3764232 0.45803705 0.68402413 0.78140676 0.80419809 0.77813236 0.8654643 0.73073193 0.5854085 0.65586063 0.60165239 0.60567876 0.53661635 0.53257847 0.6359821 0.53099612 0.55949644 0.54941496 0.50059776 0.49216999 0.42445282 0.46236985 0.33620966 0.35603203 0.43532801 0.34044294 0.28557744 0.23317215 0.31345426 0.30001874 0.17777537 0.16156702 0.22713739 0.15108552 0.12896749 0.32105873 0.55903857 0.60961813 0.54140162 0.39574596 0.21263311 0.077601894 0.062430149000000004 0.043606603 -0.12017359
-0.99477631 -0.73744766 -0.36325566 0.01113692 0.3764232 0.45803705 0.68402413 0.78140676 0.80419809 0.77813236 0.8654643 0.73073193 0.5854085 0.65586063 0.60165239 0.60567876 0.53661635 0.53257847 0.6359821 0.53099612 0.55949644 0.54941496 0.50059776 0.49216999 0.42445282 0.46236985 0.33620966 0.35603203 0.43532801 0.34044294 0.28557744 0.23317215 0.31345426 0.30001874 0.17777537 0.16156702 0.22713739 0.15108552 0.12896749 0.32105873 0.55903857 0.60961813 0.54140162 0.39574596 0.21263311 0.077601894 0.062430149000000004 0.043606603 -0.12017359 -0.13750672
-0.73744766 -0.36325566 0.01113692 0.3764232 0.45803705 0.68402413 0.78140676 0.80419809 0.77813236 0.8654643 0.73073193 0.5854085 0.65586063 0.60165239 0.60567876 0.53661635 0.53257847 0.6359821 0.53099612 0.55949644 0.54941496 0.50059776 0.49216999 0.42445282 0.46236985 0.33620966 0.35603203 0.43532801 0.34044294 0.28557744 0.23317215 0.31345426 0.30001874 0.17777537 0.16156702 0.22713739 0.15108552 0.12896749 0.32105873 0.55903857 0.60961813 0.54140162 0.39574596 0.21263311 0.077601894 0.062430149000000004 0.043606603 -0.12017359 -0.13750672 -0.13823033
-0.36325566 0.01113692 0.3764232 0.45803705 0.68402413 0.78140676 0.80419809 0.77813236 0.8654643 0.73073193 0.5854085 0.65586063 0.60165239 0.60567876 0.53661635 0.53257847 0.6359821 0.53099612 0.55949644 0.54941496 0.50059776 0.49216999 0.42445282 0.46236985 0.33620966 0.35603203 0.43532801 0.34044294 0.28557744 0.23317215 0.31345426 0.30001874 0.17777537 0.16156702 0.22713739 0.15108552 0.12896749 0.32105873 0.55903857 0.60961813 0.54140162 0.39574596 0.21263311 0.077601894 0.062430149000000004 0.043606603 -0.12017359 -0.13750672 -0.13823033 -0.09782260699999999
0.01113692 0.3764232 0.45803705 0.68402413 0.78140676 0.80419809 0.77813236 0.8654643 0.73073193 0.5854085 0.65586063 0.60165239 0.60567876 0.53661635 0.53257847 0.6359821 0.53099612 0.55949644 0.54941496 0.50059776 0.49216999 0.42445282 0.46236985 0.33620966 0.35603203 0.43532801 0.34044294 0.28557744 0.23317215 0.31345426 0.30001874 0.17777537 0.16156702 0.22713739 0.15108552 0.12896749 0.32105873 0.55903857 0.60961813 0.54140162 0.39574596 0.21263311 0.077601894 0.062430149000000004 0.043606603 -0.12017359 -0.13750672 -0.13823033 -0.09782260699999999 -0.35762979
0.3764232 0.45803705 0.68402413 0.78140676 0.80419809 0.77813236 0.8654643 0.73073193 0.5854085 0.65586063 0.60165239 0.60567876 0.53661635 0.53257847 0.6359821 0.53099612 0.55949644 0.54941496 0.50059776 0.49216999 0.42445282 0.46236985 0.33620966 0.35603203 0.43532801 0.34044294 0.28557744 0.23317215 0.31345426 0.30001874 0.17777537 0.16156702 0.22713739 0.15108552 0.12896749 0.32105873 0.55903857 0.60961813 0.54140162 0.39574596 0.21263311 0.077601894 0.062430149000000004 0.043606603 -0.12017359 -0.13750672 -0.13823033 -0.09782260699999999 -0.35762979 -0.23568494
0.45803705 0.68402413 0.78140676 0.80419809 0.77813236 0.8654643 0.73073193 0.5854085 0.65586063 0.60165239 0.60567876 0.53661635 0.53257847 0.6359821 0.53099612 0.55949644 0.54941496 0.50059776 0.49216999 0.42445282 0.46236985 0.33620966 0.35603203 0.43532801 0.34044294 0.28557744 0.23317215 0.31345426 0.30001874 0.17777537 0.16156702 0.22713739 0.15108552 0.12896749 0.32105873 0.55903857 0.60961813 0.54140162 0.39574596 0.21263311 0.077601894 0.062430149000000004 0.043606603 -0.12017359 -0.13750672 -0.13823033 -0.09782260699999999 -0.35762979 -0.23568494 -0.12330699
0.68402413 0.78140676 0.80419809 0.77813236 0.8654643 0.73073193 0.5854085 0.65586063 0.60165239 0.60567876 0.53661635 0.53257847 0.6359821 0.53099612 0.55949644 0.54941496 0.50059776 0.49216999 0.42445282 0.46236985 0.33620966 0.35603203 0.43532801 0.34044294 0.28557744 0.23317215 0.31345426 0.30001874 0.17777537 0.16156702 0.22713739 0.15108552 0.12896749 0.32105873 0.55903857 0.60961813 0.54140162 0.39574596 0.21263311 0.077601894 0.062430149000000004 0.043606603 -0.12017359 -0.13750672 -0.13823033 -0.09782260699999999 -0.35762979 -0.23568494 -0.12330699 -0.22417645
0.78140676 0.80419809 0.77813236 0.8654643 0.73073193 0.5854085 0.65586063 0.60165239 0.60567876 0.53661635 0.53257847 0.6359821 0.53099612 0.55949644 0.54941496 0.50059776 0.49216999 0.42445282 0.46236985 0.33620966 0.35603203 0.43532801 0.34044294 0.28557744 0.23317215 0.31345426 0.30001874 0.17777537 0.16156702 0.22713739 0.15108552 0.12896749 0.32105873 0.55903857 0.60961813 0.54140162 0.39574596 0.21263311 0.077601894 0.062430149000000004 0.043606603 -0.12017359 -0.13750672 -0.13823033 -0.09782260699999999 -0.35762979 -0.23568494 -0.12330699 -0.22417645 -0.2264636
0.80419809 0.77813236 0.8654643 0.73073193 0.5854085 0.65586063 0.60165239 0.60567876 0.53661635 0.53257847 0.6359821 0.53099612 0.55949644 0.54941496 0.50059776 0.49216999 0.42445282 0.46236985 0.33620966 0.35603203 0.43532801 0.34044294 0.28557744 0.23317215 0.31345426 0.30001874 0.17777537 0.16156702 0.22713739 0.15108552 0.12896749 0.32105873 0.55903857 0.60961813 0.54140162 0.39574596 0.21263311 0.077601894 0.062430149000000004 0.043606603 -0.12017359 -0.13750672 -0.13823033 -0.09782260699999999 -0.35762979 -0.23568494 -0.12330699 -0.22417645 -0.2264636 -0.20708515
0.77813236 0.8654643 0.73073193 0.5854085 0.65586063 0.60165239 0.60567876 0.53661635 0.53257847 0.6359821 0.53099612 0.55949644 0.54941496 0.50059776 0.49216999 0.42445282 0.46236985 0.33620966 0.35603203 0.43532801 0.34044294 0.28557744 0.23317215 0.31345426 0.30001874 0.17777537 0.16156702 0.22713739 0.15108552 0.12896749 0.32105873 0.55903857 0.60961813 0.54140162 0.39574596 0.21263311 0.077601894 0.062430149000000004 0.043606603 -0.12017359 -0.13750672 -0.13823033 -0.09782260699999999 -0.35762979 -0.23568494 -0.12330699 -0.22417645 -0.2264636 -0.20708515 -0.10117279
0.8654643 0.73073193 0.5854085 0.65586063 0.60165239 0.60567876 0.53661635 0.53257847 0.6359821 0.53099612 0.55949644 0.54941496 0.50059776 0.49216999 0.42445282 0.46236985 0.33620966 0.35603203 0.43532801 0.34044294 0.28557744 0.23317215 0.31345426 0.30001874 0.17777537 0.16156702 0.22713739 0.15108552 0.12896749 0.32105873 0.55903857 0.60961813 0.54140162 0.39574596 0.21263311 0.077601894 0.062430149000000004 0.043606603 -0.12017359 -0.13750672 -0.13823033 -0.09782260699999999 -0.35762979 -0.23568494 -0.12330699 -0.22417645 -0.2264636 -0.20708515 -0.10117279 -0.31391839
0.73073193 0.5854085 0.65586063 0.60165239 0.60567876 0.53661635 0.53257847 0.6359821 0.53099612 0.55949644 0.54941496 0.50059776 0.49216999 0.42445282 0.46236985 0.33620966 0.35603203 0.43532801 0.34044294 0.28557744 0.23317215 0.31345426 0.30001874 0.17777537 0.16156702 0.22713739 0.15108552 0.12896749 0.32105873 0.55903857 0.60961813 0.54140162 0.39574596 0.21263311 0.077601894 0.062430149000000004 0.043606603 -0.12017359 -0.13750672 -0.13823033 -0.09782260699999999 -0.35762979 -0.23568494 -0.12330699 -0.22417645 -0.2264636 -0.20708515 -0.10117279 -0.31391839 -0.16804224
0.5854085 0.65586063 0.60165239 0.60567876 0.53661635 0.53257847 0.6359821 0.53099612 0.55949644 0.54941496 0.50059776 0.49216999 0.42445282 0.46236985 0.33620966 0.35603203 0.43532801 0.34044294 0.28557744 0.23317215 0.31345426 0.30001874 0.17777537 0.16156702 0.22713739 0.15108552 0.12896749 0.32105873 0.55903857 0.60961813 0.54140162 0.39574596 0.21263311 0.077601894 0.062430149000000004 0.043606603 -0.12017359 -0.13750672 -0.13823033 -0.09782260699999999 -0.35762979 -0.23568494 -0.12330699 -0.22417645 -0.2264636 -0.20708515 -0.10117279 -0.31391839 -0.16804224 0.15667789
