0.18824682 0.54011861 2.1784493 3.4937687999999993 2.0753308 1.2102543 -0.26732577 -0.86685963 0.28339578 0.40012091 0.14208125 0.092881754 0.18240754 -0.69088571 -0.81472327 -0.95037184 -1.1110586 -1.1942503 -1.1333739999999999 -1.1823912 -1.2967505 -1.3465192 -1.4017603 -1.5283034 -1.6759979999999999 -1.6817738000000002 -1.6940245999999999 -1.7275973999999998 -2.0750283 -1.9526866999999999 -1.9090556 -2.0473411 -1.9649807000000001 -1.7381509999999998 -1.3949086000000002 -1.3243972 -0.82439899 -0.31298538 -0.1590169 0.28844589 0.48422411 0.81593643 0.93325722 0.86988103 1.0163635 1.0748939 0.98014325 0.94649985 0.85434159 0.73572487
0.54011861 2.1784493 3.4937687999999993 2.0753308 1.2102543 -0.26732577 -0.86685963 0.28339578 0.40012091 0.14208125 0.092881754 0.18240754 -0.69088571 -0.81472327 -0.95037184 -1.1110586 -1.1942503 -1.1333739999999999 -1.1823912 -1.2967505 -1.3465192 -1.4017603 -1.5283034 -1.6759979999999999 -1.6817738000000002 -1.6940245999999999 -1.7275973999999998 -2.0750283 -1.9526866999999999 -1.9090556 -2.0473411 -1.9649807000000001 -1.7381509999999998 -1.3949086000000002 -1.3243972 -0.82439899 -0.31298538 -0.1590169 0.28844589 0.48422411 0.81593643 0.93325722 0.86988103 1.0163635 1.0748939 0.98014325 0.94649985 0.85434159 0.73572487 0.7186939
2.1784493 3.4937687999999993 2.0753308 1.2102543 -0.26732577 -0.86685963 0.28339578 0.40012091 0.14208125 0.092881754 0.18240754 -0.69088571 -0.81472327 -0.95037184 -1.1110586 -1.1942503 -1.1333739999999999 -1.1823912 -1.2967505 -1.3465192 -1.4017603 -1.5283034 -1.6759979999999999 -1.6817738000000002 -1.6940245999999999 -1.7275973999999998 -2.0750283 -1.9526866999999999 -1.9090556 -2.0473411 -1.9649807000000001 -1.7381509999999998 -1.3949086000000002 -1.3243972 -0.82439899 -0.31298538 -0.1590169 0.28844589 0.48422411 0.81593643 0.93325722 0.86988103 1.0163635 1.0748939 0.98014325 0.94649985 0.85434159 0.73572487 0.7186939 0.65853318
3.4937687999999993 2.0753308 1.2102543 -0.26732577 -0.86685963 0.28339578 0.40012091 0.14208125 0.092881754 0.18240754 -0.69088571 -0.81472327 -0.95037184 -1.1110586 -1.1942503 -1.1333739999999999 -1.1823912 -1.2967505 -1.3465192 -1.4017603 -1.5283034 -1.6759979999999999 -1.6817738000000002 -1.6940245999999999 -1.7275973999999998 -2.0750283 -1.9526866999999999 -1.9090556 -2.0473411 -1.9649807000000001 -1.7381509999999998 -1.3949086000000002 -1.3243972 -0.82439899 -0.31298538 -0.1590169 0.28844589 0.48422411 0.81593643 0.93325722 0.86988103 1.0163635 1.0748939 0.98014325 0.94649985 0.85434159 0.73572487 0.7186939 0.65853318 0.68489
2.0753308 1.2102543 -0.26732577 -0.86685963 0.28339578 0.40012091 0.14208125 0.092881754 0.18240754 -0.69088571 -0.81472327 -0.95037184 -1.1110586 -1.1942503 -1.1333739999999999 -1.1823912 -1.2967505 -1.3465192 -1.4017603 -1.5283034 -1.6759979999999999 -1.6817738000000002 -1.6940245999999999 -1.7275973999999998 -2.0750283 -1.9526866999999999 -1.9090556 -2.0473411 -1.9649807000000001 -1.7381509999999998 -1.3949086000000002 -1.3243972 -0.82439899 -0.31298538 -0.1590169 0.28844589 0.48422411 0.81593643 0.93325722 0.86988103 1.0163635 1.0748939 0.98014325 0.94649985 0.85434159 0.73572487 0.7186939 0.65853318 0.68489 0.70924256
1.2102543 -0.26732577 -0.86685963 0.28339578 0.40012091 0.14208125 0.092881754 0.18240754 -0.69088571 -0.81472327 -0.95037184 -1.1110586 -1.1942503 -1.1333739999999999 -1.1823912 -1.2967505 -1.3465192 -1.4017603 -1.5283034 -1.6759979999999999 -1.6817738000000002 -1.6940245999999999 -1.7275973999999998 -2.0750283 -1.9526866999999999 -1.9090556 -2.0473411 -1.9649807000000001 -1.7381509999999998 -1.3949086000000002 -1.3243972 -0.82439899 -0.31298538 -0.1590169 0.28844589 0.48422411 0.81593643 0.93325722 0.86988103 1.0163635 1.0748939 0.98014325 0.94649985 0.85434159 0.73572487 0.7186939 0.65853318 0.68489 0.70924256 0.56570213
-0.26732577 -0.86685963 0.28339578 0.40012091 0.14208125 0.092881754 0.18240754 -0.69088571 -0.81472327 -0.95037184 -1.1110586 -1.1942503 -1.1333739999999999 -1.1823912 -1.2967505 -1.3465192 -1.4017603 -1.5283034 -1.6759979999999999 -1.6817738000000002 -1.6940245999999999 -1.7275973999999998 -2.0750283 -1.9526866999999999 -1.9090556 -2.0473411 -1.9649807000000001 -1.7381509999999998 -1.3949086000000002 -1.3243972 -0.82439899 -0.31298538 -0.1590169 0.28844589 0.48422411 0.81593643 0.93325722 0.86988103 1.0163635 1.0748939 0.98014325 0.94649985 0.85434159 0.73572487 0.7186939 0.65853318 0.68489 0.70924256 0.56570213 0.55820413
-0.86685963 0.28339578 0.40012091 0.14208125 0.092881754 0.18240754 -0.69088571 -0.81472327 -0.95037184 -1.1110586 -1.1942503 -1.1333739999999999 -1.1823912 -1.2967505 -1.3465192 -1.4017603 -1.5283034 -1.6759979999999999 -1.6817738000000002 -1.6940245999999999 -1.7275973999999998 -2.0750283 -1.9526866999999999 -1.9090556 -2.0473411 -1.9649807000000001 -1.7381509999999998 -1.3949086000000002 -1.3243972 -0.82439899 -0.31298538 -0.1590169 0.28844589 0.48422411 0.81593643 0.93325722 0.86988103 1.0163635 1.0748939 0.98014325 0.94649985 0.85434159 0.73572487 0.7186939 0.65853318 0.68489 0.70924256 0.56570213 0.55820413 0.56666706
0.28339578 0.40012091 0.14208125 0.092881754 0.18240754 -0.69088571 -0.81472327 -0.95037184 -1.1110586 -1.1942503 -1.1333739999999999 -1.1823912 -1.2967505 -1.3465192 -1.4017603 -1.5283034 -1.6759979999999999 -1.6817738000000002 -1.6940245999999999 -1.7275973999999998 -2.0750283 -1.9526866999999999 -1.9090556 -2.0473411 -1.9649807000000001 -1.7381509999999998 -1.3949086000000002 -1.3243972 -0.82439899 -0.31298538 -0.1590169 0.28844589 0.48422411 0.81593643 0.93325722 0.86988103 1.0163635 1.0748939 0.98014325 0.94649985 0.85434159 0.73572487 0.7186939 0.65853318 0.68489 0.70924256 0.56570213 0.55820413 0.56666706 0.58567217
0.40012091 0.14208125 0.092881754 0.18240754 -0.69088571 -0.81472327 -0.95037184 -1.1110586 -1.1942503 -1.1333739999999999 -1.1823912 -1.2967505 -1.3465192 -1.4017603 -1.5283034 -1.6759979999999999 -1.6817738000000002 -1.6940245999999999 -1.7275973999999998 -2.0750283 -1.9526866999999999 -1.9090556 -2.0473411 -1.9649807000000001 -1.7381509999999998 -1.3949086000000002 -1.3243972 -0.82439899 -0.31298538 -0.1590169 0.28844589 0.48422411 0.81593643 0.93325722 0.86988103 1.0163635 1.0748939 0.98014325 0.94649985 0.85434159 0.73572487 0.7186939 0.65853318 0.68489 0.70924256 0.56570213 0.55820413 0.56666706 0.58567217 0.58357824
0.14208125 0.092881754 0.18240754 -0.69088571 -0.81472327 -0.95037184 -1.1110586 -1.1942503 -1.1333739999999999 -1.1823912 -1.2967505 -1.3465192 -1.4017603 -1.5283034 -1.6759979999999999 -1.6817738000000002 -1.6940245999999999 -1.7275973999999998 -2.0750283 -1.9526866999999999 -1.9090556 -2.0473411 -1.9649807000000001 -1.7381509999999998 -1.3949086000000002 -1.3243972 -0.82439899 -0.31298538 -0.1590169 0.28844589 0.48422411 0.81593643 0.93325722 0.86988103 1.0163635 1.0748939 0.98014325 0.94649985 0.85434159 0.73572487 0.7186939 0.65853318 0.68489 0.70924256 0.56570213 0.55820413 0.56666706 0.58567217 0.58357824 0.4476914000000001
0.092881754 0.18240754 -0.69088571 -0.81472327 -0.95037184 -1.1110586 -1.1942503 -1.1333739999999999 -1.1823912 -1.2967505 -1.3465192 -1.4017603 -1.5283034 -1.6759979999999999 -1.6817738000000002 -1.6940245999999999 -1.7275973999999998 -2.0750283 -1.9526866999999999 -1.9090556 -2.0473411 -1.9649807000000001 -1.7381509999999998 -1.3949086000000002 -1.3243972 -0.82439899 -0.31298538 -0.1590169 0.28844589 0.48422411 0.81593643 0.93325722 0.86988103 1.0163635 1.0748939 0.98014325 0.94649985 0.85434159 0.73572487 0.7186939 0.65853318 0.68489 0.70924256 0.56570213 0.55820413 0.56666706 0.58567217 0.58357824 0.4476914000000001 0.57826374
0.18240754 -0.69088571 -0.81472327 -0.95037184 -1.1110586 -1.1942503 -1.1333739999999999 -1.1823912 -1.2967505 -1.3465192 -1.4017603 -1.5283034 -1.6759979999999999 -1.6817738000000002 -1.6940245999999999 -1.7275973999999998 -2.0750283 -1.9526866999999999 -1.9090556 -2.0473411 -1.9649807000000001 -1.7381509999999998 -1.3949086000000002 -1.3243972 -0.82439899 -0.31298538 -0.1590169 0.28844589 0.48422411 0.81593643 0.93325722 0.86988103 1.0163635 1.0748939 0.98014325 0.94649985 0.85434159 0.73572487 0.7186939 0.65853318 0.68489 0.70924256 0.56570213 0.55820413 0.56666706 0.58567217 0.58357824 0.4476914000000001 0.57826374 0.52546581
-0.69088571 -0.81472327 -0.95037184 -1.1110586 -1.1942503 -1.1333739999999999 -1.1823912 -1.2967505 -1.3465192 -1.4017603 -1.5283034 -1.6759979999999999 -1.6817738000000002 -1.6940245999999999 -1.7275973999999998 -2.0750283 -1.9526866999999999 -1.9090556 -2.0473411 -1.9649807000000001 -1.7381509999999998 -1.3949086000000002 -1.3243972 -0.82439899 -0.31298538 -0.1590169 0.28844589 0.48422411 0.81593643 0.93325722 0.86988103 1.0163635 1.0748939 0.98014325 0.94649985 0.85434159 0.73572487 0.7186939 0.65853318 0.68489 0.70924256 0.56570213 0.55820413 0.56666706 0.58567217 0.58357824 0.4476914000000001 0.57826374 0.52546581 0.45305751
-0.81472327 -0.95037184 -1.1110586 -1.1942503 -1.1333739999999999 -1.1823912 -1.2967505 -1.3465192 -1.4017603 -1.5283034 -1.6759979999999999 -1.6817738000000002 -1.6940245999999999 -1.7275973999999998 -2.0750283 -1.9526866999999999 -1.9090556 -2.0473411 -1.9649807000000001 -1.7381509999999998 -1.3949086000000002 -1.3243972 -0.82439899 -0.31298538 -0.1590169 0.28844589 0.48422411 0.81593643 0.93325722 0.86988103 1.0163635 1.0748939 0.98014325 0.94649985 0.85434159 0.73572487 0.7186939 0.65853318 0.68489 0.70924256 0.56570213 0.55820413 0.56666706 0.58567217 0.58357824 0.4476914000000001 0.57826374 0.52546581 0.45305751 0.47656667
-0.95037184 -1.1110586 -1.1942503 -1.1333739999999999 -1.1823912 -1.2967505 -1.3465192 -1.4017603 -1.5283034 -1.6759979999999999 -1.6817738000000002 -1.6940245999999999 -1.7275973999999998 -2.0750283 -1.9526866999999999 -1.9090556 -2.0473411 -1.9649807000000001 -1.7381509999999998 -1.3949086000000002 -1.3243972 -0.82439899 -0.31298538 -0.1590169 0.28844589 0.48422411 0.81593643 0.93325722 0.86988103 1.0163635 1.0748939 0.98014325 0.94649985 0.85434159 0.73572487 0.7186939 0.65853318 0.68489 0.70924256 0.56570213 0.55820413 0.56666706 0.58567217 0.58357824 0.4476914000000001 0.57826374 0.52546581 0.45305751 0.47656667 0.35518571
-1.1110586 -1.1942503 -1.1333739999999999 -1.1823912 -1.2967505 -1.3465192 -1.4017603 -1.5283034 -1.6759979999999999 -1.6817738000000002 -1.6940245999999999 -1.7275973999999998 -2.0750283 -1.9526866999999999 -1.9090556 -2.0473411 -1.9649807000000001 -1.7381509999999998 -1.3949086000000002 -1.3243972 -0.82439899 -0.31298538 -0.1590169 0.28844589 0.48422411 0.81593643 0.93325722 0.86988103 1.0163635 1.0748939 0.98014325 0.94649985 0.85434159 0.73572487 0.7186939 0.65853318 0.68489 0.70924256 0.56570213 0.55820413 0.56666706 0.58567217 0.58357824 0.4476914000000001 0.57826374 0.52546581 0.45305751 0.47656667 0.35518571 0.45571947
-1.1942503 -1.1333739999999999 -1.1823912 -1.2967505 -1.3465192 -1.4017603 -1.5283034 -1.6759979999999999 -1.6817738000000002 -1.6940245999999999 -1.7275973999999998 -2.0750283 -1.9526866999999999 -1.9090556 -2.0473411 -1.9649807000000001 -1.7381509999999998 -1.3949086000000002 -1.3243972 -0.82439899 -0.31298538 -0.1590169 0.28844589 0.48422411 0.81593643 0.93325722 0.86988103 1.0163635 1.0748939 0.98014325 0.94649985 0.85434159 0.73572487 0.7186939 0.65853318 0.68489 0.70924256 0.56570213 0.55820413 0.56666706 0.58567217 0.58357824 0.4476914000000001 0.57826374 0.52546581 0.45305751 0.47656667 0.35518571 0.45571947 0.49012269
-1.1333739999999999 -1.1823912 -1.2967505 -1.3465192 -1.4017603 -1.5283034 -1.6759979999999999 -1.6817738000000002 -1.6940245999999999 -1.7275973999999998 -2.0750283 -1.9526866999999999 -1.9090556 -2.0473411 -1.9649807000000001 -1.7381509999999998 -1.3949086000000002 -1.3243972 -0.82439899 -0.31298538 -0.1590169 0.28844589 0.48422411 0.81593643 0.93325722 0.86988103 1.0163635 1.0748939 0.98014325 0.94649985 0.85434159 0.73572487 0.7186939 0.65853318 0.68489 0.70924256 0.56570213 0.55820413 0.56666706 0.58567217 0.58357824 0.4476914000000001 0.57826374 0.52546581 0.45305751 0.47656667 0.35518571 0.45571947 0.49012269 0.38348068
-1.1823912 -1.2967505 -1.3465192 -1.4017603 -1.5283034 -1.6759979999999999 -1.6817738000000002 -1.6940245999999999 -1.7275973999999998 -2.0750283 -1.9526866999999999 -1.9090556 -2.0473411 -1.9649807000000001 -1.7381509999999998 -1.3949086000000002 -1.3243972 -0.82439899 -0.31298538 -0.1590169 0.28844589 0.48422411 0.81593643 0.93325722 0.86988103 1.0163635 1.0748939 0.98014325 0.94649985 0.85434159 0.73572487 0.7186939 0.65853318 0.68489 0.70924256 0.56570213 0.55820413 0.56666706 0.58567217 0.58357824 0.4476914000000001 0.57826374 0.52546581 0.45305751 0.47656667 0.35518571 0.45571947 0.49012269 0.38348068 0.22396411
-1.2967505 -1.3465192 -1.4017603 -1.5283034 -1.6759979999999999 -1.6817738000000002 -1.6940245999999999 -1.7275973999999998 -2.0750283 -1.9526866999999999 -1.9090556 -2.0473411 -1.9649807000000001 -1.7381509999999998 -1.3949086000000002 -1.3243972 -0.82439899 -0.31298538 -0.1590169 0.28844589 0.48422411 0.81593643 0.93325722 0.86988103 1.0163635 1.0748939 0.98014325 0.94649985 0.85434159 0.73572487 0.7186939 0.65853318 0.68489 0.70924256 0.56570213 0.55820413 0.56666706 0.58567217 0.58357824 0.4476914000000001 0.57826374 0.52546581 0.45305751 0.47656667 0.35518571 0.45571947 0.49012269 0.38348068 0.22396411 0.33297550000000004
-1.3465192 -1.4017603 -1.5283034 -1.6759979999999999 -1.6817738000000002 -1.6940245999999999 -1.7275973999999998 -2.0750283 -1.9526866999999999 -1.9090556 -2.0473411 -1.9649807000000001 -1.7381509999999998 -1.3949086000000002 -1.3243972 -0.82439899 -0.31298538 -0.1590169 0.28844589 0.48422411 0.81593643 0.93325722 0.86988103 1.0163635 1.0748939 0.98014325 0.94649985 0.85434159 0.73572487 0.7186939 0.65853318 0.68489 0.70924256 0.56570213 0.55820413 0.56666706 0.58567217 0.58357824 0.4476914000000001 0.57826374 0.52546581 0.45305751 0.47656667 0.35518571 0.45571947 0.49012269 0.38348068 0.22396411 0.33297550000000004 0.4131472
-1.4017603 -1.5283034 -1.6759979999999999 -1.6817738000000002 -1.6940245999999999 -1.7275973999999998 -2.0750283 -1.9526866999999999 -1.9090556 -2.0473411 -1.9649807000000001 -1.7381509999999998 -1.3949086000000002 -1.3243972 -0.82439899 -0.31298538 -0.1590169 0.28844589 0.48422411 0.81593643 0.93325722 0.86988103 1.0163635 1.0748939 0.98014325 0.94649985 0.85434159 0.73572487 0.7186939 0.65853318 0.68489 0.70924256 0.56570213 0.55820413 0.56666706 0.58567217 0.58357824 0.4476914000000001 0.57826374 0.52546581 0.45305751 0.47656667 0.35518571 0.45571947 0.49012269 0.38348068 0.22396411 0.33297550000000004 0.4131472 0.10550942
-1.5283034 -1.6759979999999999 -1.6817738000000002 -1.6940245999999999 -1.7275973999999998 -2.0750283 -1.9526866999999999 -1.9090556 -2.0473411 -1.9649807000000001 -1.7381509999999998 -1.3949086000000002 -1.3243972 -0.82439899 -0.31298538 -0.1590169 0.28844589 0.48422411 0.81593643 0.93325722 0.86988103 1.0163635 1.0748939 0.98014325 0.94649985 0.85434159 0.73572487 0.7186939 0.65853318 0.68489 0.70924256 0.56570213 0.55820413 0.56666706 0.58567217 0.58357824 0.4476914000000001 0.57826374 0.52546581 0.45305751 0.47656667 0.35518571 0.45571947 0.49012269 0.38348068 0.22396411 0.33297550000000004 0.4131472 0.10550942 0.55240783
-1.6759979999999999 -1.6817738000000002 -1.6940245999999999 -1.7275973999999998 -2.0750283 -1.9526866999999999 -1.9090556 -2.0473411 -1.9649807000000001 -1.7381509999999998 -1.3949086000000002 -1.3243972 -0.82439899 -0.31298538 -0.1590169 0.28844589 0.48422411 0.81593643 0.93325722 0.86988103 1.0163635 1.0748939 0.98014325 0.94649985 0.85434159 0.73572487 0.7186939 0.65853318 0.68489 0.70924256 0.56570213 0.55820413 0.56666706 0.58567217 0.58357824 0.4476914000000001 0.57826374 0.52546581 0.45305751 0.47656667 0.35518571 0.45571947 0.49012269 0.38348068 0.22396411 0.33297550000000004 0.4131472 0.10550942 0.55240783 0.79898319
-1.6817738000000002 -1.6940245999999999 -1.7275973999999998 -2.0750283 -1.9526866999999999 -1.9090556 -2.0473411 -1.9649807000000001 -1.7381509999999998 -1.3949086000000002 -1.3243972 -0.82439899 -0.31298538 -0.1590169 0.28844589 0.48422411 0.81593643 0.93325722 0.86988103 1.0163635 1.0748939 0.98014325 0.94649985 0.85434159 0.73572487 0.7186939 0.65853318 0.68489 0.70924256 0.56570213 0.55820413 0.56666706 0.58567217 0.58357824 0.4476914000000001 0.57826374 0.52546581 0.45305751 0.47656667 0.35518571 0.45571947 0.49012269 0.38348068 0.22396411 0.33297550000000004 0.4131472 0.10550942 0.55240783 0.79898319 0.66881835
-1.6940245999999999 -1.7275973999999998 -2.0750283 -1.9526866999999999 -1.9090556 -2.0473411 -1.9649807000000001 -1.7381509999999998 -1.3949086000000002 -1.3243972 -0.82439899 -0.31298538 -0.1590169 0.28844589 0.48422411 0.81593643 0.93325722 0.86988103 1.0163635 1.0748939 0.98014325 0.94649985 0.85434159 0.73572487 0.7186939 0.65853318 0.68489 0.70924256 0.56570213 0.55820413 0.56666706 0.58567217 0.58357824 0.4476914000000001 0.57826374 0.52546581 0.45305751 0.47656667 0.35518571 0.45571947 0.49012269 0.38348068 0.22396411 0.33297550000000004 0.4131472 0.10550942 0.55240783 0.79898319 0.66881835 0.8149307
-1.7275973999999998 -2.0750283 -1.9526866999999999 -1.9090556 -2.0473411 -1.9649807000000001 -1.7381509999999998 -1.3949086000000002 -1.3243972 -0.82439899 -0.31298538 -0.1590169 0.28844589 0.48422411 0.81593643 0.93325722 0.86988103 1.0163635 1.0748939 0.98014325 0.94649985 0.85434159 0.73572487 0.7186939 0.65853318 0.68489 0.70924256 0.56570213 0.55820413 0.56666706 0.58567217 0.58357824 0.4476914000000001 0.57826374 0.52546581 0.45305751 0.47656667 0.35518571 0.45571947 0.49012269 0.38348068 0.22396411 0.33297550000000004 0.4131472 0.10550942 0.55240783 0.79898319 0.66881835 0.8149307 0.57742444
-2.0750283 -1.9526866999999999 -1.9090556 -2.0473411 -1.9649807000000001 -1.7381509999999998 -1.3949086000000002 -1.3243972 -0.82439899 -0.31298538 -0.1590169 0.28844589 0.48422411 0.81593643 0.93325722 0.86988103 1.0163635 1.0748939 0.98014325 0.94649985 0.85434159 0.73572487 0.7186939 0.65853318 0.68489 0.70924256 0.56570213 0.55820413 0.56666706 0.58567217 0.58357824 0.4476914000000001 0.57826374 0.52546581 0.45305751 0.47656667 0.35518571 0.45571947 0.49012269 0.38348068 0.22396411 0.33297550000000004 0.4131472 0.10550942 0.55240783 0.79898319 0.66881835 0.8149307 0.57742444 0.44011513
-1.9526866999999999 -1.9090556 -2.0473411 -1.9649807000000001 -1.7381509999999998 -1.3949086000000002 -1.3243972 -0.82439899 -0.31298538 -0.1590169 0.28844589 0.48422411 0.81593643 0.93325722 0.86988103 1.0163635 1.0748939 0.98014325 0.94649985 0.85434159 0.73572487 0.7186939 0.65853318 0.68489 0.70924256 0.56570213 0.55820413 0.56666706 0.58567217 0.58357824 0.4476914000000001 0.57826374 0.52546581 0.45305751 0.47656667 0.35518571 0.45571947 0.49012269 0.38348068 0.22396411 0.33297550000000004 0.4131472 0.10550942 0.55240783 0.79898319 0.66881835 0.8149307 0.57742444 0.44011513 0.35085284
-1.9090556 -2.0473411 -1.9649807000000001 -1.7381509999999998 -1.3949086000000002 -1.3243972 -0.82439899 -0.31298538 -0.1590169 0.28844589 0.48422411 0.81593643 0.93325722 0.86988103 1.0163635 1.0748939 0.98014325 0.94649985 0.85434159 0.73572487 0.7186939 0.65853318 0.68489 0.70924256 0.56570213 0.55820413 0.56666706 0.58567217 0.58357824 0.4476914000000001 0.57826374 0.52546581 0.45305751 0.47656667 0.35518571 0.45571947 0.49012269 0.38348068 0.22396411 0.33297550000000004 0.4131472 0.10550942 0.55240783 0.79898319 0.66881835 0.8149307 0.57742444 0.44011513 0.35085284 0.18347025
-2.0473411 -1.9649807000000001 -1.7381509999999998 -1.3949086000000002 -1.3243972 -0.82439899 -0.31298538 -0.1590169 0.28844589 0.48422411 0.81593643 0.93325722 0.86988103 1.0163635 1.0748939 0.98014325 0.94649985 0.85434159 0.73572487 0.7186939 0.65853318 0.68489 0.70924256 0.56570213 0.55820413 0.56666706 0.58567217 0.58357824 0.4476914000000001 0.57826374 0.52546581 0.45305751 0.47656667 0.35518571 0.45571947 0.49012269 0.38348068 0.22396411 0.33297550000000004 0.4131472 0.10550942 0.55240783 0.79898319 0.66881835 0.8149307 0.57742444 0.44011513 0.35085284 0.18347025 0.23293268
-1.9649807000000001 -1.7381509999999998 -1.3949086000000002 -1.3243972 -0.82439899 -0.31298538 -0.1590169 0.28844589 0.48422411 0.81593643 0.93325722 0.86988103 1.0163635 1.0748939 0.98014325 0.94649985 0.85434159 0.73572487 0.7186939 0.65853318 0.68489 0.70924256 0.56570213 0.55820413 0.56666706 0.58567217 0.58357824 0.4476914000000001 0.57826374 0.52546581 0.45305751 0.47656667 0.35518571 0.45571947 0.49012269 0.38348068 0.22396411 0.33297550000000004 0.4131472 0.10550942 0.55240783 0.79898319 0.66881835 0.8149307 0.57742444 0.44011513 0.35085284 0.18347025 0.23293268 0.14886325
-1.7381509999999998 -1.3949086000000002 -1.3243972 -0.82439899 -0.31298538 -0.1590169 0.28844589 0.48422411 0.81593643 0.93325722 0.86988103 1.0163635 1.0748939 0.98014325 0.94649985 0.85434159 0.73572487 0.7186939 0.65853318 0.68489 0.70924256 0.56570213 0.55820413 0.56666706 0.58567217 0.58357824 0.4476914000000001 0.57826374 0.52546581 0.45305751 0.47656667 0.35518571 0.45571947 0.49012269 0.38348068 0.22396411 0.33297550000000004 0.4131472 0.10550942 0.55240783 0.79898319 0.66881835 0.8149307 0.57742444 0.44011513 0.35085284 0.18347025 0.23293268 0.14886325 0.025794922
-1.3949086000000002 -1.3243972 -0.82439899 -0.31298538 -0.1590169 0.28844589 0.48422411 0.81593643 0.93325722 0.86988103 1.0163635 1.0748939 0.98014325 0.94649985 0.85434159 0.73572487 0.7186939 0.65853318 0.68489 0.70924256 0.56570213 0.55820413 0.56666706 0.58567217 0.58357824 0.4476914000000001 0.57826374 0.52546581 0.45305751 0.47656667 0.35518571 0.45571947 0.49012269 0.38348068 0.22396411 0.33297550000000004 0.4131472 0.10550942 0.55240783 0.79898319 0.66881835 0.8149307 0.57742444 0.44011513 0.35085284 0.18347025 0.23293268 0.14886325 0.025794922 -0.088937537
-1.3243972 -0.82439899 -0.31298538 -0.1590169 0.28844589 0.48422411 0.81593643 0.93325722 0.86988103 1.0163635 1.0748939 0.98014325 0.94649985 0.85434159 0.73572487 0.7186939 0.65853318 0.68489 0.70924256 0.56570213 0.55820413 0.56666706 0.58567217 0.58357824 0.4476914000000001 0.57826374 0.52546581 0.45305751 0.47656667 0.35518571 0.45571947 0.49012269 0.38348068 0.22396411 0.33297550000000004 0.4131472 0.10550942 0.55240783 0.79898319 0.66881835 0.8149307 0.57742444 0.44011513 0.35085284 0.18347025 0.23293268 0.14886325 0.025794922 -0.088937537 0.1061531
-0.82439899 -0.31298538 -0.1590169 0.28844589 0.48422411 0.81593643 0.93325722 0.86988103 1.0163635 1.0748939 0.98014325 0.94649985 0.85434159 0.73572487 0.7186939 0.65853318 0.68489 0.70924256 0.56570213 0.55820413 0.56666706 0.58567217 0.58357824 0.4476914000000001 0.57826374 0.52546581 0.45305751 0.47656667 0.35518571 0.45571947 0.49012269 0.38348068 0.22396411 0.33297550000000004 0.4131472 0.10550942 0.55240783 0.79898319 0.66881835 0.8149307 0.57742444 0.44011513 0.35085284 0.18347025 0.23293268 0.14886325 0.025794922 -0.088937537 0.1061531 0.23085483
-0.31298538 -0.1590169 0.28844589 0.48422411 0.81593643 0.93325722 0.86988103 1.0163635 1.0748939 0.98014325 0.94649985 0.85434159 0.73572487 0.7186939 0.65853318 0.68489 0.70924256 0.56570213 0.55820413 0.56666706 0.58567217 0.58357824 0.4476914000000001 0.57826374 0.52546581 0.45305751 0.47656667 0.35518571 0.45571947 0.49012269 0.38348068 0.22396411 0.33297550000000004 0.4131472 0.10550942 0.55240783 0.79898319 0.66881835 0.8149307 0.57742444 0.44011513 0.35085284 0.18347025 0.23293268 0.14886325 0.025794922 -0.088937537 0.1061531 0.23085483 0.078553916
-0.1590169 0.28844589 0.48422411 0.81593643 0.93325722 0.86988103 1.0163635 1.0748939 0.98014325 0.94649985 0.85434159 0.73572487 0.7186939 0.65853318 0.68489 0.70924256 0.56570213 0.55820413 0.56666706 0.58567217 0.58357824 0.4476914000000001 0.57826374 0.52546581 0.45305751 0.47656667 0.35518571 0.45571947 0.49012269 0.38348068 0.22396411 0.33297550000000004 0.4131472 0.10550942 0.55240783 0.79898319 0.66881835 0.8149307 0.57742444 0.44011513 0.35085284 0.18347025 0.23293268 0.14886325 0.025794922 -0.088937537 0.1061531 0.23085483 0.078553916 0.059380192000000005
0.28844589 0.48422411 0.81593643 0.93325722 0.86988103 1.0163635 1.0748939 0.98014325 0.94649985 0.85434159 0.73572487 0.7186939 0.65853318 0.68489 0.70924256 0.56570213 0.55820413 0.56666706 0.58567217 0.58357824 0.4476914000000001 0.57826374 0.52546581 0.45305751 0.47656667 0.35518571 0.45571947 0.49012269 0.38348068 0.22396411 0.33297550000000004 0.4131472 0.10550942 0.55240783 0.79898319 0.66881835 0.8149307 0.57742444 0.44011513 0.35085284 0.18347025 0.23293268 0.14886325 0.025794922 -0.088937537 0.1061531 0.23085483 0.078553916 0.059380192000000005 0.0014209701000000002
0.48422411 0.81593643 0.93325722 0.86988103 1.0163635 1.0748939 0.98014325 0.94649985 0.85434159 0.73572487 0.7186939 0.65853318 0.68489 0.70924256 0.56570213 0.55820413 0.56666706 0.58567217 0.58357824 0.4476914000000001 0.57826374 0.52546581 0.45305751 0.47656667 0.35518571 0.45571947 0.49012269 0.38348068 0.22396411 0.33297550000000004 0.4131472 0.10550942 0.55240783 0.79898319 0.66881835 0.8149307 0.57742444 0.44011513 0.35085284 0.18347025 0.23293268 0.14886325 0.025794922 -0.088937537 0.1061531 0.23085483 0.078553916 0.059380192000000005 0.0014209701000000002 0.041701978
0.81593643 0.93325722 0.86988103 1.0163635 1.0748939 0.98014325 0.94649985 0.85434159 0.73572487 0.7186939 0.65853318 0.68489 0.70924256 0.56570213 0.55820413 0.56666706 0.58567217 0.58357824 0.4476914000000001 0.57826374 0.52546581 0.45305751 0.47656667 0.35518571 0.45571947 0.49012269 0.38348068 0.22396411 0.33297550000000004 0.4131472 0.10550942 0.55240783 0.79898319 0.66881835 0.8149307 0.57742444 0.44011513 0.35085284 0.18347025 0.23293268 0.14886325 0.025794922 -0.088937537 0.1061531 0.23085483 0.078553916 0.059380192000000005 0.0014209701000000002 0.041701978 0.16332997
0.93325722 0.86988103 1.0163635 1.0748939 0.98014325 0.94649985 0.85434159 0.73572487 0.7186939 0.65853318 0.68489 0.70924256 0.56570213 0.55820413 0.56666706 0.58567217 0.58357824 0.4476914000000001 0.57826374 0.52546581 0.45305751 0.47656667 0.35518571 0.45571947 0.49012269 0.38348068 0.22396411 0.33297550000000004 0.4131472 0.10550942 0.55240783 0.79898319 0.66881835 0.8149307 0.57742444 0.44011513 0.35085284 0.18347025 0.23293268 0.14886325 0.025794922 -0.088937537 0.1061531 0.23085483 0.078553916 0.059380192000000005 0.0014209701000000002 0.041701978 0.16332997 -0.14498441
0.86988103 1.0163635 1.0748939 0.98014325 0.94649985 0.85434159 0.73572487 0.7186939 0.65853318 0.68489 0.70924256 0.56570213 0.55820413 0.56666706 0.58567217 0.58357824 0.4476914000000001 0.57826374 0.52546581 0.45305751 0.47656667 0.35518571 0.45571947 0.49012269 0.38348068 0.22396411 0.33297550000000004 0.4131472 0.10550942 0.55240783 0.79898319 0.66881835 0.8149307 0.57742444 0.44011513 0.35085284 0.18347025 0.23293268 0.14886325 0.025794922 -0.088937537 0.1061531 0.23085483 0.078553916 0.059380192000000005 0.0014209701000000002 0.041701978 0.16332997 -0.14498441 -0.033069499
1.0163635 1.0748939 0.98014325 0.94649985 0.85434159 0.73572487 0.7186939 0.65853318 0.68489 0.70924256 0.56570213 0.55820413 0.56666706 0.58567217 0.58357824 0.4476914000000001 0.57826374 0.52546581 0.45305751 0.47656667 0.35518571 0.45571947 0.49012269 0.38348068 0.22396411 0.33297550000000004 0.4131472 0.10550942 0.55240783 0.79898319 0.66881835 0.8149307 0.57742444 0.44011513 0.35085284 0.18347025 0.23293268 0.14886325 0.025794922 -0.088937537 0.1061531 0.23085483 0.078553916 0.059380192000000005 0.0014209701000000002 0.041701978 0.16332997 -0.14498441 -0.033069499 0.22010903
1.0748939 0.98014325 0.94649985 0.85434159 0.73572487 0.7186939 0.65853318 0.68489 0.70924256 0.56570213 0.55820413 0.56666706 0.58567217 0.58357824 0.4476914000000001 0.57826374 0.52546581 0.45305751 0.47656667 0.35518571 0.45571947 0.49012269 0.38348068 0.22396411 0.33297550000000004 0.4131472 0.10550942 0.55240783 0.79898319 0.66881835 0.8149307 0.57742444 0.44011513 0.35085284 0.18347025 0.23293268 0.14886325 0.025794922 -0.088937537 0.1061531 0.23085483 0.078553916 0.059380192000000005 0.0014209701000000002 0.041701978 0.16332997 -0.14498441 -0.033069499 0.22010903 0.049480863
0.98014325 0.94649985 0.85434159 0.73572487 0.7186939 0.65853318 0.68489 0.70924256 0.56570213 0.55820413 0.56666706 0.58567217 0.58357824 0.4476914000000001 0.57826374 0.52546581 0.45305751 0.47656667 0.35518571 0.45571947 0.49012269 0.38348068 0.22396411 0.33297550000000004 0.4131472 0.10550942 0.55240783 0.79898319 0.66881835 0.8149307 0.57742444 0.44011513 0.35085284 0.18347025 0.23293268 0.14886325 0.025794922 -0.088937537 0.1061531 0.23085483 0.078553916 0.059380192000000005 0.0014209701000000002 0.041701978 0.16332997 -0.14498441 -0.033069499 0.22010903 0.049480863 0.12923039
