0.5347352 1.1512282 2.6653731 4.1776046000000004 2.9168965 1.4788379999999999 0.13561963 -0.63417895 0.37588637 0.90807948 0.58484092 0.27323378 0.39029792 0.08888308699999999 -0.3768425 -0.51716061 -0.68466891 -0.75120423 -0.83014081 -0.728014 -0.91878724 -1.1869733999999998 -0.83873139 -0.98957563 -1.3974539 -1.3020026000000002 -1.4222193 -1.6337538 -1.6511988000000002 -1.7824151000000001 -1.8822069 -1.9508718999999997 -1.8055552 -1.7426317999999998 -1.4715216 -1.4031687 -1.1494597 -0.75586538 -0.56482037 0.058797055 0.046509576 0.045872935 0.48199057 0.775385 0.56919094 0.91358627 0.95468886 1.0054228 1.0377656 0.80607371
1.1512282 2.6653731 4.1776046000000004 2.9168965 1.4788379999999999 0.13561963 -0.63417895 0.37588637 0.90807948 0.58484092 0.27323378 0.39029792 0.08888308699999999 -0.3768425 -0.51716061 -0.68466891 -0.75120423 -0.83014081 -0.728014 -0.91878724 -1.1869733999999998 -0.83873139 -0.98957563 -1.3974539 -1.3020026000000002 -1.4222193 -1.6337538 -1.6511988000000002 -1.7824151000000001 -1.8822069 -1.9508718999999997 -1.8055552 -1.7426317999999998 -1.4715216 -1.4031687 -1.1494597 -0.75586538 -0.56482037 0.058797055 0.046509576 0.045872935 0.48199057 0.775385 0.56919094 0.91358627 0.95468886 1.0054228 1.0377656 0.80607371 0.85119391
2.6653731 4.1776046000000004 2.9168965 1.4788379999999999 0.13561963 -0.63417895 0.37588637 0.90807948 0.58484092 0.27323378 0.39029792 0.08888308699999999 -0.3768425 -0.51716061 -0.68466891 -0.75120423 -0.83014081 -0.728014 -0.91878724 -1.1869733999999998 -0.83873139 -0.98957563 -1.3974539 -1.3020026000000002 -1.4222193 -1.6337538 -1.6511988000000002 -1.7824151000000001 -1.8822069 -1.9508718999999997 -1.8055552 -1.7426317999999998 -1.4715216 -1.4031687 -1.1494597 -0.75586538 -0.56482037 0.058797055 0.046509576 0.045872935 0.48199057 0.775385 0.56919094 0.91358627 0.95468886 1.0054228 1.0377656 0.80607371 0.85119391 0.82394606
4.1776046000000004 2.9168965 1.4788379999999999 0.13561963 -0.63417895 0.37588637 0.90807948 0.58484092 0.27323378 0.39029792 0.08888308699999999 -0.3768425 -0.51716061 -0.68466891 -0.75120423 -0.83014081 -0.728014 -0.91878724 -1.1869733999999998 -0.83873139 -0.98957563 -1.3974539 -1.3020026000000002 -1.4222193 -1.6337538 -1.6511988000000002 -1.7824151000000001 -1.8822069 -1.9508718999999997 -1.8055552 -1.7426317999999998 -1.4715216 -1.4031687 -1.1494597 -0.75586538 -0.56482037 0.058797055 0.046509576 0.045872935 0.48199057 0.775385 0.56919094 0.91358627 0.95468886 1.0054228 1.0377656 0.80607371 0.85119391 0.82394606 0.7131084
2.9168965 1.4788379999999999 0.13561963 -0.63417895 0.37588637 0.90807948 0.58484092 0.27323378 0.39029792 0.08888308699999999 -0.3768425 -0.51716061 -0.68466891 -0.75120423 -0.83014081 -0.728014 -0.91878724 -1.1869733999999998 -0.83873139 -0.98957563 -1.3974539 -1.3020026000000002 -1.4222193 -1.6337538 -1.6511988000000002 -1.7824151000000001 -1.8822069 -1.9508718999999997 -1.8055552 -1.7426317999999998 -1.4715216 -1.4031687 -1.1494597 -0.75586538 -0.56482037 0.058797055 0.046509576 0.045872935 0.48199057 0.775385 0.56919094 0.91358627 0.95468886 1.0054228 1.0377656 0.80607371 0.85119391 0.82394606 0.7131084 0.60449921
1.4788379999999999 0.13561963 -0.63417895 0.37588637 0.90807948 0.58484092 0.27323378 0.39029792 0.08888308699999999 -0.3768425 -0.51716061 -0.68466891 -0.75120423 -0.83014081 -0.728014 -0.91878724 -1.1869733999999998 -0.83873139 -0.98957563 -1.3974539 -1.3020026000000002 -1.4222193 -1.6337538 -1.6511988000000002 -1.7824151000000001 -1.8822069 -1.9508718999999997 -1.8055552 -1.7426317999999998 -1.4715216 -1.4031687 -1.1494597 -0.75586538 -0.56482037 0.058797055 0.046509576 0.045872935 0.48199057 0.775385 0.56919094 0.91358627 0.95468886 1.0054228 1.0377656 0.80607371 0.85119391 0.82394606 0.7131084 0.60449921 0.72206738
0.13561963 -0.63417895 0.37588637 0.90807948 0.58484092 0.27323378 0.39029792 0.08888308699999999 -0.3768425 -0.51716061 -0.68466891 -0.75120423 -0.83014081 -0.728014 -0.91878724 -1.1869733999999998 -0.83873139 -0.98957563 -1.3974539 -1.3020026000000002 -1.4222193 -1.6337538 -1.6511988000000002 -1.7824151000000001 -1.8822069 -1.9508718999999997 -1.8055552 -1.7426317999999998 -1.4715216 -1.4031687 -1.1494597 -0.75586538 -0.56482037 0.058797055 0.046509576 0.045872935 0.48199057 0.775385 0.56919094 0.91358627 0.95468886 1.0054228 1.0377656 0.80607371 0.85119391 0.82394606 0.7131084 0.60449921 0.72206738 0.57987022
-0.63417895 0.37588637 0.90807948 0.58484092 0.27323378 0.39029792 0.08888308699999999 -0.3768425 -0.51716061 -0.68466891 -0.75120423 -0.83014081 -0.728014 -0.91878724 -1.1869733999999998 -0.83873139 -0.98957563 -1.3974539 -1.3020026000000002 -1.4222193 -1.6337538 -1.6511988000000002 -1.7824151000000001 -1.8822069 -1.9508718999999997 -1.8055552 -1.7426317999999998 -1.4715216 -1.4031687 -1.1494597 -0.75586538 -0.56482037 0.058797055 0.046509576 0.045872935 0.48199057 0.775385 0.56919094 0.91358627 0.95468886 1.0054228 1.0377656 0.80607371 0.85119391 0.82394606 0.7131084 0.60449921 0.72206738 0.57987022 0.52553238
0.37588637 0.90807948 0.58484092 0.27323378 0.39029792 0.08888308699999999 -0.3768425 -0.51716061 -0.68466891 -0.75120423 -0.83014081 -0.728014 -0.91878724 -1.1869733999999998 -0.83873139 -0.98957563 -1.3974539 -1.3020026000000002 -1.4222193 -1.6337538 -1.6511988000000002 -1.7824151000000001 -1.8822069 -1.9508718999999997 -1.8055552 -1.7426317999999998 -1.4715216 -1.4031687 -1.1494597 -0.75586538 -0.56482037 0.058797055 0.046509576 0.045872935 0.48199057 0.775385 0.56919094 0.91358627 0.95468886 1.0054228 1.0377656 0.80607371 0.85119391 0.82394606 0.7131084 0.60449921 0.72206738 0.57987022 0.52553238 0.49672079
0.90807948 0.58484092 0.27323378 0.39029792 0.08888308699999999 -0.3768425 -0.51716061 -0.68466891 -0.75120423 -0.83014081 -0.728014 -0.91878724 -1.1869733999999998 -0.83873139 -0.98957563 -1.3974539 -1.3020026000000002 -1.4222193 -1.6337538 -1.6511988000000002 -1.7824151000000001 -1.8822069 -1.9508718999999997 -1.8055552 -1.7426317999999998 -1.4715216 -1.4031687 -1.1494597 -0.75586538 -0.56482037 0.058797055 0.046509576 0.045872935 0.48199057 0.775385 0.56919094 0.91358627 0.95468886 1.0054228 1.0377656 0.80607371 0.85119391 0.82394606 0.7131084 0.60449921 0.72206738 0.57987022 0.52553238 0.49672079 0.62104462
0.58484092 0.27323378 0.39029792 0.08888308699999999 -0.3768425 -0.51716061 -0.68466891 -0.75120423 -0.83014081 -0.728014 -0.91878724 -1.1869733999999998 -0.83873139 -0.98957563 -1.3974539 -1.3020026000000002 -1.4222193 -1.6337538 -1.6511988000000002 -1.7824151000000001 -1.8822069 -1.9508718999999997 -1.8055552 -1.7426317999999998 -1.4715216 -1.4031687 -1.1494597 -0.75586538 -0.56482037 0.058797055 0.046509576 0.045872935 0.48199057 0.775385 0.56919094 0.91358627 0.95468886 1.0054228 1.0377656 0.80607371 0.85119391 0.82394606 0.7131084 0.60449921 0.72206738 0.57987022 0.52553238 0.49672079 0.62104462 0.51059698
0.27323378 0.39029792 0.08888308699999999 -0.3768425 -0.51716061 -0.68466891 -0.75120423 -0.83014081 -0.728014 -0.91878724 -1.1869733999999998 -0.83873139 -0.98957563 -1.3974539 -1.3020026000000002 -1.4222193 -1.6337538 -1.6511988000000002 -1.7824151000000001 -1.8822069 -1.9508718999999997 -1.8055552 -1.7426317999999998 -1.4715216 -1.4031687 -1.1494597 -0.75586538 -0.56482037 0.058797055 0.046509576 0.045872935 0.48199057 0.775385 0.56919094 0.91358627 0.95468886 1.0054228 1.0377656 0.80607371 0.85119391 0.82394606 0.7131084 0.60449921 0.72206738 0.57987022 0.52553238 0.49672079 0.62104462 0.51059698 0.64136035
0.39029792 0.08888308699999999 -0.3768425 -0.51716061 -0.68466891 -0.75120423 -0.83014081 -0.728014 -0.91878724 -1.1869733999999998 -0.83873139 -0.98957563 -1.3974539 -1.3020026000000002 -1.4222193 -1.6337538 -1.6511988000000002 -1.7824151000000001 -1.8822069 -1.9508718999999997 -1.8055552 -1.7426317999999998 -1.4715216 -1.4031687 -1.1494597 -0.75586538 -0.56482037 0.058797055 0.046509576 0.045872935 0.48199057 0.775385 0.56919094 0.91358627 0.95468886 1.0054228 1.0377656 0.80607371 0.85119391 0.82394606 0.7131084 0.60449921 0.72206738 0.57987022 0.52553238 0.49672079 0.62104462 0.51059698 0.64136035 0.55110525
0.08888308699999999 -0.3768425 -0.51716061 -0.68466891 -0.75120423 -0.83014081 -0.728014 -0.91878724 -1.1869733999999998 -0.83873139 -0.98957563 -1.3974539 -1.3020026000000002 -1.4222193 -1.6337538 -1.6511988000000002 -1.7824151000000001 -1.8822069 -1.9508718999999997 -1.8055552 -1.7426317999999998 -1.4715216 -1.4031687 -1.1494597 -0.75586538 -0.56482037 0.058797055 0.046509576 0.045872935 0.48199057 0.775385 0.56919094 0.91358627 0.95468886 1.0054228 1.0377656 0.80607371 0.85119391 0.82394606 0.7131084 0.60449921 0.72206738 0.57987022 0.52553238 0.49672079 0.62104462 0.51059698 0.64136035 0.55110525 0.33226855
-0.3768425 -0.51716061 -0.68466891 -0.75120423 -0.83014081 -0.728014 -0.91878724 -1.1869733999999998 -0.83873139 -0.98957563 -1.3974539 -1.3020026000000002 -1.4222193 -1.6337538 -1.6511988000000002 -1.7824151000000001 -1.8822069 -1.9508718999999997 -1.8055552 -1.7426317999999998 -1.4715216 -1.4031687 -1.1494597 -0.75586538 -0.56482037 0.058797055 0.046509576 0.045872935 0.48199057 0.775385 0.56919094 0.91358627 0.95468886 1.0054228 1.0377656 0.80607371 0.85119391 0.82394606 0.7131084 0.60449921 0.72206738 0.57987022 0.52553238 0.49672079 0.62104462 0.51059698 0.64136035 0.55110525 0.33226855 0.7730893
-0.51716061 -0.68466891 -0.75120423 -0.83014081 -0.728014 -0.91878724 -1.1869733999999998 -0.83873139 -0.98957563 -1.3974539 -1.3020026000000002 -1.4222193 -1.6337538 -1.6511988000000002 -1.7824151000000001 -1.8822069 -1.9508718999999997 -1.8055552 -1.7426317999999998 -1.4715216 -1.4031687 -1.1494597 -0.75586538 -0.56482037 0.058797055 0.046509576 0.045872935 0.48199057 0.775385 0.56919094 0.91358627 0.95468886 1.0054228 1.0377656 0.80607371 0.85119391 0.82394606 0.7131084 0.60449921 0.72206738 0.57987022 0.52553238 0.49672079 0.62104462 0.51059698 0.64136035 0.55110525 0.33226855 0.7730893 0.36450658
-0.68466891 -0.75120423 -0.83014081 -0.728014 -0.91878724 -1.1869733999999998 -0.83873139 -0.98957563 -1.3974539 -1.3020026000000002 -1.4222193 -1.6337538 -1.6511988000000002 -1.7824151000000001 -1.8822069 -1.9508718999999997 -1.8055552 -1.7426317999999998 -1.4715216 -1.4031687 -1.1494597 -0.75586538 -0.56482037 0.058797055 0.046509576 0.045872935 0.48199057 0.775385 0.56919094 0.91358627 0.95468886 1.0054228 1.0377656 0.80607371 0.85119391 0.82394606 0.7131084 0.60449921 0.72206738 0.57987022 0.52553238 0.49672079 0.62104462 0.51059698 0.64136035 0.55110525 0.33226855 0.7730893 0.36450658 0.15511541
-0.75120423 -0.83014081 -0.728014 -0.91878724 -1.1869733999999998 -0.83873139 -0.98957563 -1.3974539 -1.3020026000000002 -1.4222193 -1.6337538 -1.6511988000000002 -1.7824151000000001 -1.8822069 -1.9508718999999997 -1.8055552 -1.7426317999999998 -1.4715216 -1.4031687 -1.1494597 -0.75586538 -0.56482037 0.058797055 0.046509576 0.045872935 0.48199057 0.775385 0.56919094 0.91358627 0.95468886 1.0054228 1.0377656 0.80607371 0.85119391 0.82394606 0.7131084 0.60449921 0.72206738 0.57987022 0.52553238 0.49672079 0.62104462 0.51059698 0.64136035 0.55110525 0.33226855 0.7730893 0.36450658 0.15511541 0.60077751
-0.83014081 -0.728014 -0.91878724 -1.1869733999999998 -0.83873139 -0.98957563 -1.3974539 -1.3020026000000002 -1.4222193 -1.6337538 -1.6511988000000002 -1.7824151000000001 -1.8822069 -1.9508718999999997 -1.8055552 -1.7426317999999998 -1.4715216 -1.4031687 -1.1494597 -0.75586538 -0.56482037 0.058797055 0.046509576 0.045872935 0.48199057 0.775385 0.56919094 0.91358627 0.95468886 1.0054228 1.0377656 0.80607371 0.85119391 0.82394606 0.7131084 0.60449921 0.72206738 0.57987022 0.52553238 0.49672079 0.62104462 0.51059698 0.64136035 0.55110525 0.33226855 0.7730893 0.36450658 0.15511541 0.60077751 0.1159597
-0.728014 -0.91878724 -1.1869733999999998 -0.83873139 -0.98957563 -1.3974539 -1.3020026000000002 -1.4222193 -1.6337538 -1.6511988000000002 -1.7824151000000001 -1.8822069 -1.9508718999999997 -1.8055552 -1.7426317999999998 -1.4715216 -1.4031687 -1.1494597 -0.75586538 -0.56482037 0.058797055 0.046509576 0.045872935 0.48199057 0.775385 0.56919094 0.91358627 0.95468886 1.0054228 1.0377656 0.80607371 0.85119391 0.82394606 0.7131084 0.60449921 0.72206738 0.57987022 0.52553238 0.49672079 0.62104462 0.51059698 0.64136035 0.55110525 0.33226855 0.7730893 0.36450658 0.15511541 0.60077751 0.1159597 -0.0052225825
-0.91878724 -1.1869733999999998 -0.83873139 -0.98957563 -1.3974539 -1.3020026000000002 -1.4222193 -1.6337538 -1.6511988000000002 -1.7824151000000001 -1.8822069 -1.9508718999999997 -1.8055552 -1.7426317999999998 -1.4715216 -1.4031687 -1.1494597 -0.75586538 -0.56482037 0.058797055 0.046509576 0.045872935 0.48199057 0.775385 0.56919094 0.91358627 0.95468886 1.0054228 1.0377656 0.80607371 0.85119391 0.82394606 0.7131084 0.60449921 0.72206738 0.57987022 0.52553238 0.49672079 0.62104462 0.51059698 0.64136035 0.55110525 0.33226855 0.7730893 0.36450658 0.15511541 0.60077751 0.1159597 -0.0052225825 0.16481241
-1.1869733999999998 -0.83873139 -0.98957563 -1.3974539 -1.3020026000000002 -1.4222193 -1.6337538 -1.6511988000000002 -1.7824151000000001 -1.8822069 -1.9508718999999997 -1.8055552 -1.7426317999999998 -1.4715216 -1.4031687 -1.1494597 -0.75586538 -0.56482037 0.058797055 0.046509576 0.045872935 0.48199057 0.775385 0.56919094 0.91358627 0.95468886 1.0054228 1.0377656 0.80607371 0.85119391 0.82394606 0.7131084 0.60449921 0.72206738 0.57987022 0.52553238 0.49672079 0.62104462 0.51059698 0.64136035 0.55110525 0.33226855 0.7730893 0.36450658 0.15511541 0.60077751 0.1159597 -0.0052225825 0.16481241 0.048156635999999996
-0.83873139 -0.98957563 -1.3974539 -1.3020026000000002 -1.4222193 -1.6337538 -1.6511988000000002 -1.7824151000000001 -1.8822069 -1.9508718999999997 -1.8055552 -1.7426317999999998 -1.4715216 -1.4031687 -1.1494597 -0.75586538 -0.56482037 0.058797055 0.046509576 0.045872935 0.48199057 0.775385 0.56919094 0.91358627 0.95468886 1.0054228 1.0377656 0.80607371 0.85119391 0.82394606 0.7131084 0.60449921 0.72206738 0.57987022 0.52553238 0.49672079 0.62104462 0.51059698 0.64136035 0.55110525 0.33226855 0.7730893 0.36450658 0.15511541 0.60077751 0.1159597 -0.0052225825 0.16481241 0.048156635999999996 0.045531815
-0.98957563 -1.3974539 -1.3020026000000002 -1.4222193 -1.6337538 -1.6511988000000002 -1.7824151000000001 -1.8822069 -1.9508718999999997 -1.8055552 -1.7426317999999998 -1.4715216 -1.4031687 -1.1494597 -0.75586538 -0.56482037 0.058797055 0.046509576 0.045872935 0.48199057 0.775385 0.56919094 0.91358627 0.95468886 1.0054228 1.0377656 0.80607371 0.85119391 0.82394606 0.7131084 0.60449921 0.72206738 0.57987022 0.52553238 0.49672079 0.62104462 0.51059698 0.64136035 0.55110525 0.33226855 0.7730893 0.36450658 0.15511541 0.60077751 0.1159597 -0.0052225825 0.16481241 0.048156635999999996 0.045531815 0.06665070299999999
-1.3974539 -1.3020026000000002 -1.4222193 -1.6337538 -1.6511988000000002 -1.7824151000000001 -1.8822069 -1.9508718999999997 -1.8055552 -1.7426317999999998 -1.4715216 -1.4031687 -1.1494597 -0.75586538 -0.56482037 0.058797055 0.046509576 0.045872935 0.48199057 0.775385 0.56919094 0.91358627 0.95468886 1.0054228 1.0377656 0.80607371 0.85119391 0.82394606 0.7131084 0.60449921 0.72206738 0.57987022 0.52553238 0.49672079 0.62104462 0.51059698 0.64136035 0.55110525 0.33226855 0.7730893 0.36450658 0.15511541 0.60077751 0.1159597 -0.0052225825 0.16481241 0.048156635999999996 0.045531815 0.06665070299999999 0.23052361
-1.3020026000000002 -1.4222193 -1.6337538 -1.6511988000000002 -1.7824151000000001 -1.8822069 -1.9508718999999997 -1.8055552 -1.7426317999999998 -1.4715216 -1.4031687 -1.1494597 -0.75586538 -0.56482037 0.058797055 0.046509576 0.045872935 0.48199057 0.775385 0.56919094 0.91358627 0.95468886 1.0054228 1.0377656 0.80607371 0.85119391 0.82394606 0.7131084 0.60449921 0.72206738 0.57987022 0.52553238 0.49672079 0.62104462 0.51059698 0.64136035 0.55110525 0.33226855 0.7730893 0.36450658 0.15511541 0.60077751 0.1159597 -0.0052225825 0.16481241 0.048156635999999996 0.045531815 0.06665070299999999 0.23052361 0.60322751
-1.4222193 -1.6337538 -1.6511988000000002 -1.7824151000000001 -1.8822069 -1.9508718999999997 -1.8055552 -1.7426317999999998 -1.4715216 -1.4031687 -1.1494597 -0.75586538 -0.56482037 0.058797055 0.046509576 0.045872935 0.48199057 0.775385 0.56919094 0.91358627 0.95468886 1.0054228 1.0377656 0.80607371 0.85119391 0.82394606 0.7131084 0.60449921 0.72206738 0.57987022 0.52553238 0.49672079 0.62104462 0.51059698 0.64136035 0.55110525 0.33226855 0.7730893 0.36450658 0.15511541 0.60077751 0.1159597 -0.0052225825 0.16481241 0.048156635999999996 0.045531815 0.06665070299999999 0.23052361 0.60322751 0.71238708
-1.6337538 -1.6511988000000002 -1.7824151000000001 -1.8822069 -1.9508718999999997 -1.8055552 -1.7426317999999998 -1.4715216 -1.4031687 -1.1494597 -0.75586538 -0.56482037 0.058797055 0.046509576 0.045872935 0.48199057 0.775385 0.56919094 0.91358627 0.95468886 1.0054228 1.0377656 0.80607371 0.85119391 0.82394606 0.7131084 0.60449921 0.72206738 0.57987022 0.52553238 0.49672079 0.62104462 0.51059698 0.64136035 0.55110525 0.33226855 0.7730893 0.36450658 0.15511541 0.60077751 0.1159597 -0.0052225825 0.16481241 0.048156635999999996 0.045531815 0.06665070299999999 0.23052361 0.60322751 0.71238708 0.49910405
-1.6511988000000002 -1.7824151000000001 -1.8822069 -1.9508718999999997 -1.8055552 -1.7426317999999998 -1.4715216 -1.4031687 -1.1494597 -0.75586538 -0.56482037 0.058797055 0.046509576 0.045872935 0.48199057 0.775385 0.56919094 0.91358627 0.95468886 1.0054228 1.0377656 0.80607371 0.85119391 0.82394606 0.7131084 0.60449921 0.72206738 0.57987022 0.52553238 0.49672079 0.62104462 0.51059698 0.64136035 0.55110525 0.33226855 0.7730893 0.36450658 0.15511541 0.60077751 0.1159597 -0.0052225825 0.16481241 0.048156635999999996 0.045531815 0.06665070299999999 0.23052361 0.60322751 0.71238708 0.49910405 0.27300791
-1.7824151000000001 -1.8822069 -1.9508718999999997 -1.8055552 -1.7426317999999998 -1.4715216 -1.4031687 -1.1494597 -0.75586538 -0.56482037 0.058797055 0.046509576 0.045872935 0.48199057 0.775385 0.56919094 0.91358627 0.95468886 1.0054228 1.0377656 0.80607371 0.85119391 0.82394606 0.7131084 0.60449921 0.72206738 0.57987022 0.52553238 0.49672079 0.62104462 0.51059698 0.64136035 0.55110525 0.33226855 0.7730893 0.36450658 0.15511541 0.60077751 0.1159597 -0.0052225825 0.16481241 0.048156635999999996 0.045531815 0.06665070299999999 0.23052361 0.60322751 0.71238708 0.49910405 0.27300791 0.1420472
-1.8822069 -1.9508718999999997 -1.8055552 -1.7426317999999998 -1.4715216 -1.4031687 -1.1494597 -0.75586538 -0.56482037 0.058797055 0.046509576 0.045872935 0.48199057 0.775385 0.56919094 0.91358627 0.95468886 1.0054228 1.0377656 0.80607371 0.85119391 0.82394606 0.7131084 0.60449921 0.72206738 0.57987022 0.52553238 0.49672079 0.62104462 0.51059698 0.64136035 0.55110525 0.33226855 0.7730893 0.36450658 0.15511541 0.60077751 0.1159597 -0.0052225825 0.16481241 0.048156635999999996 0.045531815 0.06665070299999999 0.23052361 0.60322751 0.71238708 0.49910405 0.27300791 0.1420472 0.07157657
-1.9508718999999997 -1.8055552 -1.7426317999999998 -1.4715216 -1.4031687 -1.1494597 -0.75586538 -0.56482037 0.058797055 0.046509576 0.045872935 0.48199057 0.775385 0.56919094 0.91358627 0.95468886 1.0054228 1.0377656 0.80607371 0.85119391 0.82394606 0.7131084 0.60449921 0.72206738 0.57987022 0.52553238 0.49672079 0.62104462 0.51059698 0.64136035 0.55110525 0.33226855 0.7730893 0.36450658 0.15511541 0.60077751 0.1159597 -0.0052225825 0.16481241 0.048156635999999996 0.045531815 0.06665070299999999 0.23052361 0.60322751 0.71238708 0.49910405 0.27300791 0.1420472 0.07157657 0.055745475999999995
-1.8055552 -1.7426317999999998 -1.4715216 -1.4031687 -1.1494597 -0.75586538 -0.56482037 0.058797055 0.046509576 0.045872935 0.48199057 0.775385 0.56919094 0.91358627 0.95468886 1.0054228 1.0377656 0.80607371 0.85119391 0.82394606 0.7131084 0.60449921 0.72206738 0.57987022 0.52553238 0.49672079 0.62104462 0.51059698 0.64136035 0.55110525 0.33226855 0.7730893 0.36450658 0.15511541 0.60077751 0.1159597 -0.0052225825 0.16481241 0.048156635999999996 0.045531815 0.06665070299999999 0.23052361 0.60322751 0.71238708 0.49910405 0.27300791 0.1420472 0.07157657 0.055745475999999995 -0.14893827
-1.7426317999999998 -1.4715216 -1.4031687 -1.1494597 -0.75586538 -0.56482037 0.058797055 0.046509576 0.045872935 0.48199057 0.775385 0.56919094 0.91358627 0.95468886 1.0054228 1.0377656 0.80607371 0.85119391 0.82394606 0.7131084 0.60449921 0.72206738 0.57987022 0.52553238 0.49672079 0.62104462 0.51059698 0.64136035 0.55110525 0.33226855 0.7730893 0.36450658 0.15511541 0.60077751 0.1159597 -0.0052225825 0.16481241 0.048156635999999996 0.045531815 0.06665070299999999 0.23052361 0.60322751 0.71238708 0.49910405 0.27300791 0.1420472 0.07157657 0.055745475999999995 -0.14893827 -0.32040599999999997
-1.4715216 -1.4031687 -1.1494597 -0.75586538 -0.56482037 0.058797055 0.046509576 0.045872935 0.48199057 0.775385 0.56919094 0.91358627 0.95468886 1.0054228 1.0377656 0.80607371 0.85119391 0.82394606 0.7131084 0.60449921 0.72206738 0.57987022 0.52553238 0.49672079 0.62104462 0.51059698 0.64136035 0.55110525 0.33226855 0.7730893 0.36450658 0.15511541 0.60077751 0.1159597 -0.0052225825 0.16481241 0.048156635999999996 0.045531815 0.06665070299999999 0.23052361 0.60322751 0.71238708 0.49910405 0.27300791 0.1420472 0.07157657 0.055745475999999995 -0.14893827 -0.32040599999999997 -0.20320039
-1.4031687 -1.1494597 -0.75586538 -0.56482037 0.058797055 0.046509576 0.045872935 0.48199057 0.775385 0.56919094 0.91358627 0.95468886 1.0054228 1.0377656 0.80607371 0.85119391 0.82394606 0.7131084 0.60449921 0.72206738 0.57987022 0.52553238 0.49672079 0.62104462 0.51059698 0.64136035 0.55110525 0.33226855 0.7730893 0.36450658 0.15511541 0.60077751 0.1159597 -0.0052225825 0.16481241 0.048156635999999996 0.045531815 0.06665070299999999 0.23052361 0.60322751 0.71238708 0.49910405 0.27300791 0.1420472 0.07157657 0.055745475999999995 -0.14893827 -0.32040599999999997 -0.20320039 -0.37650036
-1.1494597 -0.75586538 -0.56482037 0.058797055 0.046509576 0.045872935 0.48199057 0.775385 0.56919094 0.91358627 0.95468886 1.0054228 1.0377656 0.80607371 0.85119391 0.82394606 0.7131084 0.60449921 0.72206738 0.57987022 0.52553238 0.49672079 0.62104462 0.51059698 0.64136035 0.55110525 0.33226855 0.7730893 0.36450658 0.15511541 0.60077751 0.1159597 -0.0052225825 0.16481241 0.048156635999999996 0.045531815 0.06665070299999999 0.23052361 0.60322751 0.71238708 0.49910405 0.27300791 0.1420472 0.07157657 0.055745475999999995 -0.14893827 -0.32040599999999997 -0.20320039 -0.37650036 -0.39701547
-0.75586538 -0.56482037 0.058797055 0.046509576 0.045872935 0.48199057 0.775385 0.56919094 0.91358627 0.95468886 1.0054228 1.0377656 0.80607371 0.85119391 0.82394606 0.7131084 0.60449921 0.72206738 0.57987022 0.52553238 0.49672079 0.62104462 0.51059698 0.64136035 0.55110525 0.33226855 0.7730893 0.36450658 0.15511541 0.60077751 0.1159597 -0.0052225825 0.16481241 0.048156635999999996 0.045531815 0.06665070299999999 0.23052361 0.60322751 0.71238708 0.49910405 0.27300791 0.1420472 0.07157657 0.055745475999999995 -0.14893827 -0.32040599999999997 -0.20320039 -0.37650036 -0.39701547 -0.18855204
-0.56482037 0.058797055 0.046509576 0.045872935 0.48199057 0.775385 0.56919094 0.91358627 0.95468886 1.0054228 1.0377656 0.80607371 0.85119391 0.82394606 0.7131084 0.60449921 0.72206738 0.57987022 0.52553238 0.49672079 0.62104462 0.51059698 0.64136035 0.55110525 0.33226855 0.7730893 0.36450658 0.15511541 0.60077751 0.1159597 -0.0052225825 0.16481241 0.048156635999999996 0.045531815 0.06665070299999999 0.23052361 0.60322751 0.71238708 0.49910405 0.27300791 0.1420472 0.07157657 0.055745475999999995 -0.14893827 -0.32040599999999997 -0.20320039 -0.37650036 -0.39701547 -0.18855204 -0.55104721
0.058797055 0.046509576 0.045872935 0.48199057 0.775385 0.56919094 0.91358627 0.95468886 1.0054228 1.0377656 0.80607371 0.85119391 0.82394606 0.7131084 0.60449921 0.72206738 0.57987022 0.52553238 0.49672079 0.62104462 0.51059698 0.64136035 0.55110525 0.33226855 0.7730893 0.36450658 0.15511541 0.60077751 0.1159597 -0.0052225825 0.16481241 0.048156635999999996 0.045531815 0.06665070299999999 0.23052361 0.60322751 0.71238708 0.49910405 0.27300791 0.1420472 0.07157657 0.055745475999999995 -0.14893827 -0.32040599999999997 -0.20320039 -0.37650036 -0.39701547 -0.18855204 -0.55104721 -0.22708987
0.046509576 0.045872935 0.48199057 0.775385 0.56919094 0.91358627 0.95468886 1.0054228 1.0377656 0.80607371 0.85119391 0.82394606 0.7131084 0.60449921 0.72206738 0.57987022 0.52553238 0.49672079 0.62104462 0.51059698 0.64136035 0.55110525 0.33226855 0.7730893 0.36450658 0.15511541 0.60077751 0.1159597 -0.0052225825 0.16481241 0.048156635999999996 0.045531815 0.06665070299999999 0.23052361 0.60322751 0.71238708 0.49910405 0.27300791 0.1420472 0.07157657 0.055745475999999995 -0.14893827 -0.32040599999999997 -0.20320039 -0.37650036 -0.39701547 -0.18855204 -0.55104721 -0.22708987 -0.53982888
0.045872935 0.48199057 0.775385 0.56919094 0.91358627 0.95468886 1.0054228 1.0377656 0.80607371 0.85119391 0.82394606 0.7131084 0.60449921 0.72206738 0.57987022 0.52553238 0.49672079 0.62104462 0.51059698 0.64136035 0.55110525 0.33226855 0.7730893 0.36450658 0.15511541 0.60077751 0.1159597 -0.0052225825 0.16481241 0.048156635999999996 0.045531815 0.06665070299999999 0.23052361 0.60322751 0.71238708 0.49910405 0.27300791 0.1420472 0.07157657 0.055745475999999995 -0.14893827 -0.32040599999999997 -0.20320039 -0.37650036 -0.39701547 -0.18855204 -0.55104721 -0.22708987 -0.53982888 -0.23207756
0.48199057 0.775385 0.56919094 0.91358627 0.95468886 1.0054228 1.0377656 0.80607371 0.85119391 0.82394606 0.7131084 0.60449921 0.72206738 0.57987022 0.52553238 0.49672079 0.62104462 0.51059698 0.64136035 0.55110525 0.33226855 0.7730893 0.36450658 0.15511541 0.60077751 0.1159597 -0.0052225825 0.16481241 0.048156635999999996 0.045531815 0.06665070299999999 0.23052361 0.60322751 0.71238708 0.49910405 0.27300791 0.1420472 0.07157657 0.055745475999999995 -0.14893827 -0.32040599999999997 -0.20320039 -0.37650036 -0.39701547 -0.18855204 -0.55104721 -0.22708987 -0.53982888 -0.23207756 0.10949861
0.775385 0.56919094 0.91358627 0.95468886 1.0054228 1.0377656 0.80607371 0.85119391 0.82394606 0.7131084 0.60449921 0.72206738 0.57987022 0.52553238 0.49672079 0.62104462 0.51059698 0.64136035 0.55110525 0.33226855 0.7730893 0.36450658 0.15511541 0.60077751 0.1159597 -0.0052225825 0.16481241 0.048156635999999996 0.045531815 0.06665070299999999 0.23052361 0.60322751 0.71238708 0.49910405 0.27300791 0.1420472 0.07157657 0.055745475999999995 -0.14893827 -0.32040599999999997 -0.20320039 -0.37650036 -0.39701547 -0.18855204 -0.55104721 -0.22708987 -0.53982888 -0.23207756 0.10949861 -0.68768556
0.56919094 0.91358627 0.95468886 1.0054228 1.0377656 0.80607371 0.85119391 0.82394606 0.7131084 0.60449921 0.72206738 0.57987022 0.52553238 0.49672079 0.62104462 0.51059698 0.64136035 0.55110525 0.33226855 0.7730893 0.36450658 0.15511541 0.60077751 0.1159597 -0.0052225825 0.16481241 0.048156635999999996 0.045531815 0.06665070299999999 0.23052361 0.60322751 0.71238708 0.49910405 0.27300791 0.1420472 0.07157657 0.055745475999999995 -0.14893827 -0.32040599999999997 -0.20320039 -0.37650036 -0.39701547 -0.18855204 -0.55104721 -0.22708987 -0.53982888 -0.23207756 0.10949861 -0.68768556 -0.31634669
0.91358627 0.95468886 1.0054228 1.0377656 0.80607371 0.85119391 0.82394606 0.7131084 0.60449921 0.72206738 0.57987022 0.52553238 0.49672079 0.62104462 0.51059698 0.64136035 0.55110525 0.33226855 0.7730893 0.36450658 0.15511541 0.60077751 0.1159597 -0.0052225825 0.16481241 0.048156635999999996 0.045531815 0.06665070299999999 0.23052361 0.60322751 0.71238708 0.49910405 0.27300791 0.1420472 0.07157657 0.055745475999999995 -0.14893827 -0.32040599999999997 -0.20320039 -0.37650036 -0.39701547 -0.18855204 -0.55104721 -0.22708987 -0.53982888 -0.23207756 0.10949861 -0.68768556 -0.31634669 -0.43290016
0.95468886 1.0054228 1.0377656 0.80607371 0.85119391 0.82394606 0.7131084 0.60449921 0.72206738 0.57987022 0.52553238 0.49672079 0.62104462 0.51059698 0.64136035 0.55110525 0.33226855 0.7730893 0.36450658 0.15511541 0.60077751 0.1159597 -0.0052225825 0.16481241 0.048156635999999996 0.045531815 0.06665070299999999 0.23052361 0.60322751 0.71238708 0.49910405 0.27300791 0.1420472 0.07157657 0.055745475999999995 -0.14893827 -0.32040599999999997 -0.20320039 -0.37650036 -0.39701547 -0.18855204 -0.55104721 -0.22708987 -0.53982888 -0.23207756 0.10949861 -0.68768556 -0.31634669 -0.43290016 -0.38359833
