2.0412979 2.0215905 1.9258953999999997 2.3343605 1.1738737 -0.45254768 -0.72808871 -0.97286861 -1.1330444 -1.3083921 -1.4269104 -1.3777995 -1.4946452 -1.6391585 -1.6507468999999997 -1.6371200000000001 -1.7475462 -1.7957816000000002 -1.8923593 -1.8622911 -2.0314748 -2.0181803 -1.8818738999999998 -1.8788136000000002 -1.7021406000000003 -1.6389220000000002 -1.3705513 -1.074531 -0.77577882 -0.325801 0.10598077 0.41984097 0.55780729 0.66172383 0.74204524 0.7688022 0.88773093 0.93061314 0.89278808 0.82587454 0.71323405 0.63487012 0.58140712 0.55860979 0.51887426 0.54622788 0.46277437 0.38710092 0.49854746 0.45849862
2.0215905 1.9258953999999997 2.3343605 1.1738737 -0.45254768 -0.72808871 -0.97286861 -1.1330444 -1.3083921 -1.4269104 -1.3777995 -1.4946452 -1.6391585 -1.6507468999999997 -1.6371200000000001 -1.7475462 -1.7957816000000002 -1.8923593 -1.8622911 -2.0314748 -2.0181803 -1.8818738999999998 -1.8788136000000002 -1.7021406000000003 -1.6389220000000002 -1.3705513 -1.074531 -0.77577882 -0.325801 0.10598077 0.41984097 0.55780729 0.66172383 0.74204524 0.7688022 0.88773093 0.93061314 0.89278808 0.82587454 0.71323405 0.63487012 0.58140712 0.55860979 0.51887426 0.54622788 0.46277437 0.38710092 0.49854746 0.45849862 0.38337416
1.9258953999999997 2.3343605 1.1738737 -0.45254768 -0.72808871 -0.97286861 -1.1330444 -1.3083921 -1.4269104 -1.3777995 -1.4946452 -1.6391585 -1.6507468999999997 -1.6371200000000001 -1.7475462 -1.7957816000000002 -1.8923593 -1.8622911 -2.0314748 -2.0181803 -1.8818738999999998 -1.8788136000000002 -1.7021406000000003 -1.6389220000000002 -1.3705513 -1.074531 -0.77577882 -0.325801 0.10598077 0.41984097 0.55780729 0.66172383 0.74204524 0.7688022 0.88773093 0.93061314 0.89278808 0.82587454 0.71323405 0.63487012 0.58140712 0.55860979 0.51887426 0.54622788 0.46277437 0.38710092 0.49854746 0.45849862 0.38337416 0.46243779999999995
2.3343605 1.1738737 -0.45254768 -0.72808871 -0.97286861 -1.1330444 -1.3083921 -1.4269104 -1.3777995 -1.4946452 -1.6391585 -1.6507468999999997 -1.6371200000000001 -1.7475462 -1.7957816000000002 -1.8923593 -1.8622911 -2.0314748 -2.0181803 -1.8818738999999998 -1.8788136000000002 -1.7021406000000003 -1.6389220000000002 -1.3705513 -1.074531 -0.77577882 -0.325801 0.10598077 0.41984097 0.55780729 0.66172383 0.74204524 0.7688022 0.88773093 0.93061314 0.89278808 0.82587454 0.71323405 0.63487012 0.58140712 0.55860979 0.51887426 0.54622788 0.46277437 0.38710092 0.49854746 0.45849862 0.38337416 0.46243779999999995 0.52128288
1.1738737 -0.45254768 -0.72808871 -0.97286861 -1.1330444 -1.3083921 -1.4269104 -1.3777995 -1.4946452 -1.6391585 -1.6507468999999997 -1.6371200000000001 -1.7475462 -1.7957816000000002 -1.8923593 -1.8622911 -2.0314748 -2.0181803 -1.8818738999999998 -1.8788136000000002 -1.7021406000000003 -1.6389220000000002 -1.3705513 -1.074531 -0.77577882 -0.325801 0.10598077 0.41984097 0.55780729 0.66172383 0.74204524 0.7688022 0.88773093 0.93061314 0.89278808 0.82587454 0.71323405 0.63487012 0.58140712 0.55860979 0.51887426 0.54622788 0.46277437 0.38710092 0.49854746 0.45849862 0.38337416 0.46243779999999995 0.52128288 0.54289555
-0.45254768 -0.72808871 -0.97286861 -1.1330444 -1.3083921 -1.4269104 -1.3777995 -1.4946452 -1.6391585 -1.6507468999999997 -1.6371200000000001 -1.7475462 -1.7957816000000002 -1.8923593 -1.8622911 -2.0314748 -2.0181803 -1.8818738999999998 -1.8788136000000002 -1.7021406000000003 -1.6389220000000002 -1.3705513 -1.074531 -0.77577882 -0.325801 0.10598077 0.41984097 0.55780729 0.66172383 0.74204524 0.7688022 0.88773093 0.93061314 0.89278808 0.82587454 0.71323405 0.63487012 0.58140712 0.55860979 0.51887426 0.54622788 0.46277437 0.38710092 0.49854746 0.45849862 0.38337416 0.46243779999999995 0.52128288 0.54289555 0.70444864
-0.72808871 -0.97286861 -1.1330444 -1.3083921 -1.4269104 -1.3777995 -1.4946452 -1.6391585 -1.6507468999999997 -1.6371200000000001 -1.7475462 -1.7957816000000002 -1.8923593 -1.8622911 -2.0314748 -2.0181803 -1.8818738999999998 -1.8788136000000002 -1.7021406000000003 -1.6389220000000002 -1.3705513 -1.074531 -0.77577882 -0.325801 0.10598077 0.41984097 0.55780729 0.66172383 0.74204524 0.7688022 0.88773093 0.93061314 0.89278808 0.82587454 0.71323405 0.63487012 0.58140712 0.55860979 0.51887426 0.54622788 0.46277437 0.38710092 0.49854746 0.45849862 0.38337416 0.46243779999999995 0.52128288 0.54289555 0.70444864 0.81086868
-0.97286861 -1.1330444 -1.3083921 -1.4269104 -1.3777995 -1.4946452 -1.6391585 -1.6507468999999997 -1.6371200000000001 -1.7475462 -1.7957816000000002 -1.8923593 -1.8622911 -2.0314748 -2.0181803 -1.8818738999999998 -1.8788136000000002 -1.7021406000000003 -1.6389220000000002 -1.3705513 -1.074531 -0.77577882 -0.325801 0.10598077 0.41984097 0.55780729 0.66172383 0.74204524 0.7688022 0.88773093 0.93061314 0.89278808 0.82587454 0.71323405 0.63487012 0.58140712 0.55860979 0.51887426 0.54622788 0.46277437 0.38710092 0.49854746 0.45849862 0.38337416 0.46243779999999995 0.52128288 0.54289555 0.70444864 0.81086868 0.84128969
-1.1330444 -1.3083921 -1.4269104 -1.3777995 -1.4946452 -1.6391585 -1.6507468999999997 -1.6371200000000001 -1.7475462 -1.7957816000000002 -1.8923593 -1.8622911 -2.0314748 -2.0181803 -1.8818738999999998 -1.8788136000000002 -1.7021406000000003 -1.6389220000000002 -1.3705513 -1.074531 -0.77577882 -0.325801 0.10598077 0.41984097 0.55780729 0.66172383 0.74204524 0.7688022 0.88773093 0.93061314 0.89278808 0.82587454 0.71323405 0.63487012 0.58140712 0.55860979 0.51887426 0.54622788 0.46277437 0.38710092 0.49854746 0.45849862 0.38337416 0.46243779999999995 0.52128288 0.54289555 0.70444864 0.81086868 0.84128969 0.85245267
-1.3083921 -1.4269104 -1.3777995 -1.4946452 -1.6391585 -1.6507468999999997 -1.6371200000000001 -1.7475462 -1.7957816000000002 -1.8923593 -1.8622911 -2.0314748 -2.0181803 -1.8818738999999998 -1.8788136000000002 -1.7021406000000003 -1.6389220000000002 -1.3705513 -1.074531 -0.77577882 -0.325801 0.10598077 0.41984097 0.55780729 0.66172383 0.74204524 0.7688022 0.88773093 0.93061314 0.89278808 0.82587454 0.71323405 0.63487012 0.58140712 0.55860979 0.51887426 0.54622788 0.46277437 0.38710092 0.49854746 0.45849862 0.38337416 0.46243779999999995 0.52128288 0.54289555 0.70444864 0.81086868 0.84128969 0.85245267 0.69108352
-1.4269104 -1.3777995 -1.4946452 -1.6391585 -1.6507468999999997 -1.6371200000000001 -1.7475462 -1.7957816000000002 -1.8923593 -1.8622911 -2.0314748 -2.0181803 -1.8818738999999998 -1.8788136000000002 -1.7021406000000003 -1.6389220000000002 -1.3705513 -1.074531 -0.77577882 -0.325801 0.10598077 0.41984097 0.55780729 0.66172383 0.74204524 0.7688022 0.88773093 0.93061314 0.89278808 0.82587454 0.71323405 0.63487012 0.58140712 0.55860979 0.51887426 0.54622788 0.46277437 0.38710092 0.49854746 0.45849862 0.38337416 0.46243779999999995 0.52128288 0.54289555 0.70444864 0.81086868 0.84128969 0.85245267 0.69108352 0.74737044
-1.3777995 -1.4946452 -1.6391585 -1.6507468999999997 -1.6371200000000001 -1.7475462 -1.7957816000000002 -1.8923593 -1.8622911 -2.0314748 -2.0181803 -1.8818738999999998 -1.8788136000000002 -1.7021406000000003 -1.6389220000000002 -1.3705513 -1.074531 -0.77577882 -0.325801 0.10598077 0.41984097 0.55780729 0.66172383 0.74204524 0.7688022 0.88773093 0.93061314 0.89278808 0.82587454 0.71323405 0.63487012 0.58140712 0.55860979 0.51887426 0.54622788 0.46277437 0.38710092 0.49854746 0.45849862 0.38337416 0.46243779999999995 0.52128288 0.54289555 0.70444864 0.81086868 0.84128969 0.85245267 0.69108352 0.74737044 0.7926625
-1.4946452 -1.6391585 -1.6507468999999997 -1.6371200000000001 -1.7475462 -1.7957816000000002 -1.8923593 -1.8622911 -2.0314748 -2.0181803 -1.8818738999999998 -1.8788136000000002 -1.7021406000000003 -1.6389220000000002 -1.3705513 -1.074531 -0.77577882 -0.325801 0.10598077 0.41984097 0.55780729 0.66172383 0.74204524 0.7688022 0.88773093 0.93061314 0.89278808 0.82587454 0.71323405 0.63487012 0.58140712 0.55860979 0.51887426 0.54622788 0.46277437 0.38710092 0.49854746 0.45849862 0.38337416 0.46243779999999995 0.52128288 0.54289555 0.70444864 0.81086868 0.84128969 0.85245267 0.69108352 0.74737044 0.7926625 0.82489155
-1.6391585 -1.6507468999999997 -1.6371200000000001 -1.7475462 -1.7957816000000002 -1.8923593 -1.8622911 -2.0314748 -2.0181803 -1.8818738999999998 -1.8788136000000002 -1.7021406000000003 -1.6389220000000002 -1.3705513 -1.074531 -0.77577882 -0.325801 0.10598077 0.41984097 0.55780729 0.66172383 0.74204524 0.7688022 0.88773093 0.93061314 0.89278808 0.82587454 0.71323405 0.63487012 0.58140712 0.55860979 0.51887426 0.54622788 0.46277437 0.38710092 0.49854746 0.45849862 0.38337416 0.46243779999999995 0.52128288 0.54289555 0.70444864 0.81086868 0.84128969 0.85245267 0.69108352 0.74737044 0.7926625 0.82489155 0.73355633
-1.6507468999999997 -1.6371200000000001 -1.7475462 -1.7957816000000002 -1.8923593 -1.8622911 -2.0314748 -2.0181803 -1.8818738999999998 -1.8788136000000002 -1.7021406000000003 -1.6389220000000002 -1.3705513 -1.074531 -0.77577882 -0.325801 0.10598077 0.41984097 0.55780729 0.66172383 0.74204524 0.7688022 0.88773093 0.93061314 0.89278808 0.82587454 0.71323405 0.63487012 0.58140712 0.55860979 0.51887426 0.54622788 0.46277437 0.38710092 0.49854746 0.45849862 0.38337416 0.46243779999999995 0.52128288 0.54289555 0.70444864 0.81086868 0.84128969 0.85245267 0.69108352 0.74737044 0.7926625 0.82489155 0.73355633 0.54221106
-1.6371200000000001 -1.7475462 -1.7957816000000002 -1.8923593 -1.8622911 -2.0314748 -2.0181803 -1.8818738999999998 -1.8788136000000002 -1.7021406000000003 -1.6389220000000002 -1.3705513 -1.074531 -0.77577882 -0.325801 0.10598077 0.41984097 0.55780729 0.66172383 0.74204524 0.7688022 0.88773093 0.93061314 0.89278808 0.82587454 0.71323405 0.63487012 0.58140712 0.55860979 0.51887426 0.54622788 0.46277437 0.38710092 0.49854746 0.45849862 0.38337416 0.46243779999999995 0.52128288 0.54289555 0.70444864 0.81086868 0.84128969 0.85245267 0.69108352 0.74737044 0.7926625 0.82489155 0.73355633 0.54221106 0.4398919
-1.7475462 -1.7957816000000002 -1.8923593 -1.8622911 -2.0314748 -2.0181803 -1.8818738999999998 -1.8788136000000002 -1.7021406000000003 -1.6389220000000002 -1.3705513 -1.074531 -0.77577882 -0.325801 0.10598077 0.41984097 0.55780729 0.66172383 0.74204524 0.7688022 0.88773093 0.93061314 0.89278808 0.82587454 0.71323405 0.63487012 0.58140712 0.55860979 0.51887426 0.54622788 0.46277437 0.38710092 0.49854746 0.45849862 0.38337416 0.46243779999999995 0.52128288 0.54289555 0.70444864 0.81086868 0.84128969 0.85245267 0.69108352 0.74737044 0.7926625 0.82489155 0.73355633 0.54221106 0.4398919 0.17818583
-1.7957816000000002 -1.8923593 -1.8622911 -2.0314748 -2.0181803 -1.8818738999999998 -1.8788136000000002 -1.7021406000000003 -1.6389220000000002 -1.3705513 -1.074531 -0.77577882 -0.325801 0.10598077 0.41984097 0.55780729 0.66172383 0.74204524 0.7688022 0.88773093 0.93061314 0.89278808 0.82587454 0.71323405 0.63487012 0.58140712 0.55860979 0.51887426 0.54622788 0.46277437 0.38710092 0.49854746 0.45849862 0.38337416 0.46243779999999995 0.52128288 0.54289555 0.70444864 0.81086868 0.84128969 0.85245267 0.69108352 0.74737044 0.7926625 0.82489155 0.73355633 0.54221106 0.4398919 0.17818583 0.067928638
-1.8923593 -1.8622911 -2.0314748 -2.0181803 -1.8818738999999998 -1.8788136000000002 -1.7021406000000003 -1.6389220000000002 -1.3705513 -1.074531 -0.77577882 -0.325801 0.10598077 0.41984097 0.55780729 0.66172383 0.74204524 0.7688022 0.88773093 0.93061314 0.89278808 0.82587454 0.71323405 0.63487012 0.58140712 0.55860979 0.51887426 0.54622788 0.46277437 0.38710092 0.49854746 0.45849862 0.38337416 0.46243779999999995 0.52128288 0.54289555 0.70444864 0.81086868 0.84128969 0.85245267 0.69108352 0.74737044 0.7926625 0.82489155 0.73355633 0.54221106 0.4398919 0.17818583 0.067928638 -0.042475807000000004
-1.8622911 -2.0314748 -2.0181803 -1.8818738999999998 -1.8788136000000002 -1.7021406000000003 -1.6389220000000002 -1.3705513 -1.074531 -0.77577882 -0.325801 0.10598077 0.41984097 0.55780729 0.66172383 0.74204524 0.7688022 0.88773093 0.93061314 0.89278808 0.82587454 0.71323405 0.63487012 0.58140712 0.55860979 0.51887426 0.54622788 0.46277437 0.38710092 0.49854746 0.45849862 0.38337416 0.46243779999999995 0.52128288 0.54289555 0.70444864 0.81086868 0.84128969 0.85245267 0.69108352 0.74737044 0.7926625 0.82489155 0.73355633 0.54221106 0.4398919 0.17818583 0.067928638 -0.042475807000000004 -0.006794190699999999
-2.0314748 -2.0181803 -1.8818738999999998 -1.8788136000000002 -1.7021406000000003 -1.6389220000000002 -1.3705513 -1.074531 -0.77577882 -0.325801 0.10598077 0.41984097 0.55780729 0.66172383 0.74204524 0.7688022 0.88773093 0.93061314 0.89278808 0.82587454 0.71323405 0.63487012 0.58140712 0.55860979 0.51887426 0.54622788 0.46277437 0.38710092 0.49854746 0.45849862 0.38337416 0.46243779999999995 0.52128288 0.54289555 0.70444864 0.81086868 0.84128969 0.85245267 0.69108352 0.74737044 0.7926625 0.82489155 0.73355633 0.54221106 0.4398919 0.17818583 0.067928638 -0.042475807000000004 -0.006794190699999999 0.015047884
-2.0181803 -1.8818738999999998 -1.8788136000000002 -1.7021406000000003 -1.6389220000000002 -1.3705513 -1.074531 -0.77577882 -0.325801 0.10598077 0.41984097 0.55780729 0.66172383 0.74204524 0.7688022 0.88773093 0.93061314 0.89278808 0.82587454 0.71323405 0.63487012 0.58140712 0.55860979 0.51887426 0.54622788 0.46277437 0.38710092 0.49854746 0.45849862 0.38337416 0.46243779999999995 0.52128288 0.54289555 0.70444864 0.81086868 0.84128969 0.85245267 0.69108352 0.74737044 0.7926625 0.82489155 0.73355633 0.54221106 0.4398919 0.17818583 0.067928638 -0.042475807000000004 -0.006794190699999999 0.015047884 -0.049013166
-1.8818738999999998 -1.8788136000000002 -1.7021406000000003 -1.6389220000000002 -1.3705513 -1.074531 -0.77577882 -0.325801 0.10598077 0.41984097 0.55780729 0.66172383 0.74204524 0.7688022 0.88773093 0.93061314 0.89278808 0.82587454 0.71323405 0.63487012 0.58140712 0.55860979 0.51887426 0.54622788 0.46277437 0.38710092 0.49854746 0.45849862 0.38337416 0.46243779999999995 0.52128288 0.54289555 0.70444864 0.81086868 0.84128969 0.85245267 0.69108352 0.74737044 0.7926625 0.82489155 0.73355633 0.54221106 0.4398919 0.17818583 0.067928638 -0.042475807000000004 -0.006794190699999999 0.015047884 -0.049013166 -0.094703985
-1.8788136000000002 -1.7021406000000003 -1.6389220000000002 -1.3705513 -1.074531 -0.77577882 -0.325801 0.10598077 0.41984097 0.55780729 0.66172383 0.74204524 0.7688022 0.88773093 0.93061314 0.89278808 0.82587454 0.71323405 0.63487012 0.58140712 0.55860979 0.51887426 0.54622788 0.46277437 0.38710092 0.49854746 0.45849862 0.38337416 0.46243779999999995 0.52128288 0.54289555 0.70444864 0.81086868 0.84128969 0.85245267 0.69108352 0.74737044 0.7926625 0.82489155 0.73355633 0.54221106 0.4398919 0.17818583 0.067928638 -0.042475807000000004 -0.006794190699999999 0.015047884 -0.049013166 -0.094703985 -0.11401520000000001
-1.7021406000000003 -1.6389220000000002 -1.3705513 -1.074531 -0.77577882 -0.325801 0.10598077 0.41984097 0.55780729 0.66172383 0.74204524 0.7688022 0.88773093 0.93061314 0.89278808 0.82587454 0.71323405 0.63487012 0.58140712 0.55860979 0.51887426 0.54622788 0.46277437 0.38710092 0.49854746 0.45849862 0.38337416 0.46243779999999995 0.52128288 0.54289555 0.70444864 0.81086868 0.84128969 0.85245267 0.69108352 0.74737044 0.7926625 0.82489155 0.73355633 0.54221106 0.4398919 0.17818583 0.067928638 -0.042475807000000004 -0.006794190699999999 0.015047884 -0.049013166 -0.094703985 -0.11401520000000001 -0.0011615384
-1.6389220000000002 -1.3705513 -1.074531 -0.77577882 -0.325801 0.10598077 0.41984097 0.55780729 0.66172383 0.74204524 0.7688022 0.88773093 0.93061314 0.89278808 0.82587454 0.71323405 0.63487012 0.58140712 0.55860979 0.51887426 0.54622788 0.46277437 0.38710092 0.49854746 0.45849862 0.38337416 0.46243779999999995 0.52128288 0.54289555 0.70444864 0.81086868 0.84128969 0.85245267 0.69108352 0.74737044 0.7926625 0.82489155 0.73355633 0.54221106 0.4398919 0.17818583 0.067928638 -0.042475807000000004 -0.006794190699999999 0.015047884 -0.049013166 -0.094703985 -0.11401520000000001 -0.0011615384 -0.08385210000000001
-1.3705513 -1.074531 -0.77577882 -0.325801 0.10598077 0.41984097 0.55780729 0.66172383 0.74204524 0.7688022 0.88773093 0.93061314 0.89278808 0.82587454 0.71323405 0.63487012 0.58140712 0.55860979 0.51887426 0.54622788 0.46277437 0.38710092 0.49854746 0.45849862 0.38337416 0.46243779999999995 0.52128288 0.54289555 0.70444864 0.81086868 0.84128969 0.85245267 0.69108352 0.74737044 0.7926625 0.82489155 0.73355633 0.54221106 0.4398919 0.17818583 0.067928638 -0.042475807000000004 -0.006794190699999999 0.015047884 -0.049013166 -0.094703985 -0.11401520000000001 -0.0011615384 -0.08385210000000001 -0.093966707
-1.074531 -0.77577882 -0.325801 0.10598077 0.41984097 0.55780729 0.66172383 0.74204524 0.7688022 0.88773093 0.93061314 0.89278808 0.82587454 0.71323405 0.63487012 0.58140712 0.55860979 0.51887426 0.54622788 0.46277437 0.38710092 0.49854746 0.45849862 0.38337416 0.46243779999999995 0.52128288 0.54289555 0.70444864 0.81086868 0.84128969 0.85245267 0.69108352 0.74737044 0.7926625 0.82489155 0.73355633 0.54221106 0.4398919 0.17818583 0.067928638 -0.042475807000000004 -0.006794190699999999 0.015047884 -0.049013166 -0.094703985 -0.11401520000000001 -0.0011615384 -0.08385210000000001 -0.093966707 -0.078748905
-0.77577882 -0.325801 0.10598077 0.41984097 0.55780729 0.66172383 0.74204524 0.7688022 0.88773093 0.93061314 0.89278808 0.82587454 0.71323405 0.63487012 0.58140712 0.55860979 0.51887426 0.54622788 0.46277437 0.38710092 0.49854746 0.45849862 0.38337416 0.46243779999999995 0.52128288 0.54289555 0.70444864 0.81086868 0.84128969 0.85245267 0.69108352 0.74737044 0.7926625 0.82489155 0.73355633 0.54221106 0.4398919 0.17818583 0.067928638 -0.042475807000000004 -0.006794190699999999 0.015047884 -0.049013166 -0.094703985 -0.11401520000000001 -0.0011615384 -0.08385210000000001 -0.093966707 -0.078748905 0.00019599784
-0.325801 0.10598077 0.41984097 0.55780729 0.66172383 0.74204524 0.7688022 0.88773093 0.93061314 0.89278808 0.82587454 0.71323405 0.63487012 0.58140712 0.55860979 0.51887426 0.54622788 0.46277437 0.38710092 0.49854746 0.45849862 0.38337416 0.46243779999999995 0.52128288 0.54289555 0.70444864 0.81086868 0.84128969 0.85245267 0.69108352 0.74737044 0.7926625 0.82489155 0.73355633 0.54221106 0.4398919 0.17818583 0.067928638 -0.042475807000000004 -0.006794190699999999 0.015047884 -0.049013166 -0.094703985 -0.11401520000000001 -0.0011615384 -0.08385210000000001 -0.093966707 -0.078748905 0.00019599784 -0.0877118
0.10598077 0.41984097 0.55780729 0.66172383 0.74204524 0.7688022 0.88773093 0.93061314 0.89278808 0.82587454 0.71323405 0.63487012 0.58140712 0.55860979 0.51887426 0.54622788 0.46277437 0.38710092 0.49854746 0.45849862 0.38337416 0.46243779999999995 0.52128288 0.54289555 0.70444864 0.81086868 0.84128969 0.85245267 0.69108352 0.74737044 0.7926625 0.82489155 0.73355633 0.54221106 0.4398919 0.17818583 0.067928638 -0.042475807000000004 -0.006794190699999999 0.015047884 -0.049013166 -0.094703985 -0.11401520000000001 -0.0011615384 -0.08385210000000001 -0.093966707 -0.078748905 0.00019599784 -0.0877118 -0.09344386
0.41984097 0.55780729 0.66172383 0.74204524 0.7688022 0.88773093 0.93061314 0.89278808 0.82587454 0.71323405 0.63487012 0.58140712 0.55860979 0.51887426 0.54622788 0.46277437 0.38710092 0.49854746 0.45849862 0.38337416 0.46243779999999995 0.52128288 0.54289555 0.70444864 0.81086868 0.84128969 0.85245267 0.69108352 0.74737044 0.7926625 0.82489155 0.73355633 0.54221106 0.4398919 0.17818583 0.067928638 -0.042475807000000004 -0.006794190699999999 0.015047884 -0.049013166 -0.094703985 -0.11401520000000001 -0.0011615384 -0.08385210000000001 -0.093966707 -0.078748905 0.00019599784 -0.0877118 -0.09344386 -0.05769818
0.55780729 0.66172383 0.74204524 0.7688022 0.88773093 0.93061314 0.89278808 0.82587454 0.71323405 0.63487012 0.58140712 0.55860979 0.51887426 0.54622788 0.46277437 0.38710092 0.49854746 0.45849862 0.38337416 0.46243779999999995 0.52128288 0.54289555 0.70444864 0.81086868 0.84128969 0.85245267 0.69108352 0.74737044 0.7926625 0.82489155 0.73355633 0.54221106 0.4398919 0.17818583 0.067928638 -0.042475807000000004 -0.006794190699999999 0.015047884 -0.049013166 -0.094703985 -0.11401520000000001 -0.0011615384 -0.08385210000000001 -0.093966707 -0.078748905 0.00019599784 -0.0877118 -0.09344386 -0.05769818 -0.060419020999999996
0.66172383 0.74204524 0.7688022 0.88773093 0.93061314 0.89278808 0.82587454 0.71323405 0.63487012 0.58140712 0.55860979 0.51887426 0.54622788 0.46277437 0.38710092 0.49854746 0.45849862 0.38337416 0.46243779999999995 0.52128288 0.54289555 0.70444864 0.81086868 0.84128969 0.85245267 0.69108352 0.74737044 0.7926625 0.82489155 0.73355633 0.54221106 0.4398919 0.17818583 0.067928638 -0.042475807000000004 -0.006794190699999999 0.015047884 -0.049013166 -0.094703985 -0.11401520000000001 -0.0011615384 -0.08385210000000001 -0.093966707 -0.078748905 0.00019599784 -0.0877118 -0.09344386 -0.05769818 -0.060419020999999996 -0.057214332
0.74204524 0.7688022 0.88773093 0.93061314 0.89278808 0.82587454 0.71323405 0.63487012 0.58140712 0.55860979 0.51887426 0.54622788 0.46277437 0.38710092 0.49854746 0.45849862 0.38337416 0.46243779999999995 0.52128288 0.54289555 0.70444864 0.81086868 0.84128969 0.85245267 0.69108352 0.74737044 0.7926625 0.82489155 0.73355633 0.54221106 0.4398919 0.17818583 0.067928638 -0.042475807000000004 -0.006794190699999999 0.015047884 -0.049013166 -0.094703985 -0.11401520000000001 -0.0011615384 -0.08385210000000001 -0.093966707 -0.078748905 0.00019599784 -0.0877118 -0.09344386 -0.05769818 -0.060419020999999996 -0.057214332 -0.11642003
0.7688022 0.88773093 0.93061314 0.89278808 0.82587454 0.71323405 0.63487012 0.58140712 0.55860979 0.51887426 0.54622788 0.46277437 0.38710092 0.49854746 0.45849862 0.38337416 0.46243779999999995 0.52128288 0.54289555 0.70444864 0.81086868 0.84128969 0.85245267 0.69108352 0.74737044 0.7926625 0.82489155 0.73355633 0.54221106 0.4398919 0.17818583 0.067928638 -0.042475807000000004 -0.006794190699999999 0.015047884 -0.049013166 -0.094703985 -0.11401520000000001 -0.0011615384 -0.08385210000000001 -0.093966707 -0.078748905 0.00019599784 -0.0877118 -0.09344386 -0.05769818 -0.060419020999999996 -0.057214332 -0.11642003 -0.024918867
0.88773093 0.93061314 0.89278808 0.82587454 0.71323405 0.63487012 0.58140712 0.55860979 0.51887426 0.54622788 0.46277437 0.38710092 0.49854746 0.45849862 0.38337416 0.46243779999999995 0.52128288 0.54289555 0.70444864 0.81086868 0.84128969 0.85245267 0.69108352 0.74737044 0.7926625 0.82489155 0.73355633 0.54221106 0.4398919 0.17818583 0.067928638 -0.042475807000000004 -0.006794190699999999 0.015047884 -0.049013166 -0.094703985 -0.11401520000000001 -0.0011615384 -0.08385210000000001 -0.093966707 -0.078748905 0.00019599784 -0.0877118 -0.09344386 -0.05769818 -0.060419020999999996 -0.057214332 -0.11642003 -0.024918867 0.088910345
0.93061314 0.89278808 0.82587454 0.71323405 0.63487012 0.58140712 0.55860979 0.51887426 0.54622788 0.46277437 0.38710092 0.49854746 0.45849862 0.38337416 0.46243779999999995 0.52128288 0.54289555 0.70444864 0.81086868 0.84128969 0.85245267 0.69108352 0.74737044 0.7926625 0.82489155 0.73355633 0.54221106 0.4398919 0.17818583 0.067928638 -0.042475807000000004 -0.006794190699999999 0.015047884 -0.049013166 -0.094703985 -0.11401520000000001 -0.0011615384 -0.08385210000000001 -0.093966707 -0.078748905 0.00019599784 -0.0877118 -0.09344386 -0.05769818 -0.060419020999999996 -0.057214332 -0.11642003 -0.024918867 0.088910345 0.11528339
0.89278808 0.82587454 0.71323405 0.63487012 0.58140712 0.55860979 0.51887426 0.54622788 0.46277437 0.38710092 0.49854746 0.45849862 0.38337416 0.46243779999999995 0.52128288 0.54289555 0.70444864 0.81086868 0.84128969 0.85245267 0.69108352 0.74737044 0.7926625 0.82489155 0.73355633 0.54221106 0.4398919 0.17818583 0.067928638 -0.042475807000000004 -0.006794190699999999 0.015047884 -0.049013166 -0.094703985 -0.11401520000000001 -0.0011615384 -0.08385210000000001 -0.093966707 -0.078748905 0.00019599784 -0.0877118 -0.09344386 -0.05769818 -0.060419020999999996 -0.057214332 -0.11642003 -0.024918867 0.088910345 0.11528339 0.06665418599999999
0.82587454 0.71323405 0.63487012 0.58140712 0.55860979 0.51887426 0.54622788 0.46277437 0.38710092 0.49854746 0.45849862 0.38337416 0.46243779999999995 0.52128288 0.54289555 0.70444864 0.81086868 0.84128969 0.85245267 0.69108352 0.74737044 0.7926625 0.82489155 0.73355633 0.54221106 0.4398919 0.17818583 0.067928638 -0.042475807000000004 -0.006794190699999999 0.015047884 -0.049013166 -0.094703985 -0.11401520000000001 -0.0011615384 -0.08385210000000001 -0.093966707 -0.078748905 0.00019599784 -0.0877118 -0.09344386 -0.05769818 -0.060419020999999996 -0.057214332 -0.11642003 -0.024918867 0.088910345 0.11528339 0.06665418599999999 0.10396027
0.71323405 0.63487012 0.58140712 0.55860979 0.51887426 0.54622788 0.46277437 0.38710092 0.49854746 0.45849862 0.38337416 0.46243779999999995 0.52128288 0.54289555 0.70444864 0.81086868 0.84128969 0.85245267 0.69108352 0.74737044 0.7926625 0.82489155 0.73355633 0.54221106 0.4398919 0.17818583 0.067928638 -0.042475807000000004 -0.006794190699999999 0.015047884 -0.049013166 -0.094703985 -0.11401520000000001 -0.0011615384 -0.08385210000000001 -0.093966707 -0.078748905 0.00019599784 -0.0877118 -0.09344386 -0.05769818 -0.060419020999999996 -0.057214332 -0.11642003 -0.024918867 0.088910345 0.11528339 0.06665418599999999 0.10396027 0.23877021
0.63487012 0.58140712 0.55860979 0.51887426 0.54622788 0.46277437 0.38710092 0.49854746 0.45849862 0.38337416 0.46243779999999995 0.52128288 0.54289555 0.70444864 0.81086868 0.84128969 0.85245267 0.69108352 0.74737044 0.7926625 0.82489155 0.73355633 0.54221106 0.4398919 0.17818583 0.067928638 -0.042475807000000004 -0.006794190699999999 0.015047884 -0.049013166 -0.094703985 -0.11401520000000001 -0.0011615384 -0.08385210000000001 -0.093966707 -0.078748905 0.00019599784 -0.0877118 -0.09344386 -0.05769818 -0.060419020999999996 -0.057214332 -0.11642003 -0.024918867 0.088910345 0.11528339 0.06665418599999999 0.10396027 0.23877021 0.30620836
0.58140712 0.55860979 0.51887426 0.54622788 0.46277437 0.38710092 0.49854746 0.45849862 0.38337416 0.46243779999999995 0.52128288 0.54289555 0.70444864 0.81086868 0.84128969 0.85245267 0.69108352 0.74737044 0.7926625 0.82489155 0.73355633 0.54221106 0.4398919 0.17818583 0.067928638 -0.042475807000000004 -0.006794190699999999 0.015047884 -0.049013166 -0.094703985 -0.11401520000000001 -0.0011615384 -0.08385210000000001 -0.093966707 -0.078748905 0.00019599784 -0.0877118 -0.09344386 -0.05769818 -0.060419020999999996 -0.057214332 -0.11642003 -0.024918867 0.088910345 0.11528339 0.06665418599999999 0.10396027 0.23877021 0.30620836 0.33757239
0.55860979 0.51887426 0.54622788 0.46277437 0.38710092 0.49854746 0.45849862 0.38337416 0.46243779999999995 0.52128288 0.54289555 0.70444864 0.81086868 0.84128969 0.85245267 0.69108352 0.74737044 0.7926625 0.82489155 0.73355633 0.54221106 0.4398919 0.17818583 0.067928638 -0.042475807000000004 -0.006794190699999999 0.015047884 -0.049013166 -0.094703985 -0.11401520000000001 -0.0011615384 -0.08385210000000001 -0.093966707 -0.078748905 0.00019599784 -0.0877118 -0.09344386 -0.05769818 -0.060419020999999996 -0.057214332 -0.11642003 -0.024918867 0.088910345 0.11528339 0.06665418599999999 0.10396027 0.23877021 0.30620836 0.33757239 0.75526593
0.51887426 0.54622788 0.46277437 0.38710092 0.49854746 0.45849862 0.38337416 0.46243779999999995 0.52128288 0.54289555 0.70444864 0.81086868 0.84128969 0.85245267 0.69108352 0.74737044 0.7926625 0.82489155 0.73355633 0.54221106 0.4398919 0.17818583 0.067928638 -0.042475807000000004 -0.006794190699999999 0.015047884 -0.049013166 -0.094703985 -0.11401520000000001 -0.0011615384 -0.08385210000000001 -0.093966707 -0.078748905 0.00019599784 -0.0877118 -0.09344386 -0.05769818 -0.060419020999999996 -0.057214332 -0.11642003 -0.024918867 0.088910345 0.11528339 0.06665418599999999 0.10396027 0.23877021 0.30620836 0.33757239 0.75526593 0.86793768
0.54622788 0.46277437 0.38710092 0.49854746 0.45849862 0.38337416 0.46243779999999995 0.52128288 0.54289555 0.70444864 0.81086868 0.84128969 0.85245267 0.69108352 0.74737044 0.7926625 0.82489155 0.73355633 0.54221106 0.4398919 0.17818583 0.067928638 -0.042475807000000004 -0.006794190699999999 0.015047884 -0.049013166 -0.094703985 -0.11401520000000001 -0.0011615384 -0.08385210000000001 -0.093966707 -0.078748905 0.00019599784 -0.0877118 -0.09344386 -0.05769818 -0.060419020999999996 -0.057214332 -0.11642003 -0.024918867 0.088910345 0.11528339 0.06665418599999999 0.10396027 0.23877021 0.30620836 0.33757239 0.75526593 0.86793768 0.83823445
0.46277437 0.38710092 0.49854746 0.45849862 0.38337416 0.46243779999999995 0.52128288 0.54289555 0.70444864 0.81086868 0.84128969 0.85245267 0.69108352 0.74737044 0.7926625 0.82489155 0.73355633 0.54221106 0.4398919 0.17818583 0.067928638 -0.042475807000000004 -0.006794190699999999 0.015047884 -0.049013166 -0.094703985 -0.11401520000000001 -0.0011615384 -0.08385210000000001 -0.093966707 -0.078748905 0.00019599784 -0.0877118 -0.09344386 -0.05769818 -0.060419020999999996 -0.057214332 -0.11642003 -0.024918867 0.088910345 0.11528339 0.06665418599999999 0.10396027 0.23877021 0.30620836 0.33757239 0.75526593 0.86793768 0.83823445 1.3586827
