1.6163364 2.0997266 1.7879116000000002 1.3280621000000001 0.75938508 0.23035588 -0.18072166 -0.15454607 0.030906251000000003 -0.075155368 -0.33687146 -0.23652244 0.017446446 0.031067472999999998 -0.11954177 -0.42609942 -0.78787868 -0.83315607 -0.69918239 -0.7868791 -0.91889446 -0.84977911 -0.82126556 -0.94243803 -0.9580671000000001 -0.90753234 -1.0062488 -1.125972 -1.2265875 -1.3745718999999998 -1.3621048 -1.2954596 -1.4603632 -1.6102178999999999 -1.6205738 -1.6907146 -1.7210371 -1.6819537 -1.6996601000000002 -1.6466202 -1.5376433999999999 -1.5190506000000001 -1.4401019 -1.2364728 -1.0722291000000002 -0.96042602 -0.82814727 -0.62651442 -0.38726802 -0.25290086
2.0997266 1.7879116000000002 1.3280621000000001 0.75938508 0.23035588 -0.18072166 -0.15454607 0.030906251000000003 -0.075155368 -0.33687146 -0.23652244 0.017446446 0.031067472999999998 -0.11954177 -0.42609942 -0.78787868 -0.83315607 -0.69918239 -0.7868791 -0.91889446 -0.84977911 -0.82126556 -0.94243803 -0.9580671000000001 -0.90753234 -1.0062488 -1.125972 -1.2265875 -1.3745718999999998 -1.3621048 -1.2954596 -1.4603632 -1.6102178999999999 -1.6205738 -1.6907146 -1.7210371 -1.6819537 -1.6996601000000002 -1.6466202 -1.5376433999999999 -1.5190506000000001 -1.4401019 -1.2364728 -1.0722291000000002 -0.96042602 -0.82814727 -0.62651442 -0.38726802 -0.25290086 -0.15906052
1.7879116000000002 1.3280621000000001 0.75938508 0.23035588 -0.18072166 -0.15454607 0.030906251000000003 -0.075155368 -0.33687146 -0.23652244 0.017446446 0.031067472999999998 -0.11954177 -0.42609942 -0.78787868 -0.83315607 -0.69918239 -0.7868791 -0.91889446 -0.84977911 -0.82126556 -0.94243803 -0.9580671000000001 -0.90753234 -1.0062488 -1.125972 -1.2265875 -1.3745718999999998 -1.3621048 -1.2954596 -1.4603632 -1.6102178999999999 -1.6205738 -1.6907146 -1.7210371 -1.6819537 -1.6996601000000002 -1.6466202 -1.5376433999999999 -1.5190506000000001 -1.4401019 -1.2364728 -1.0722291000000002 -0.96042602 -0.82814727 -0.62651442 -0.38726802 -0.25290086 -0.15906052 0.025740575
1.3280621000000001 0.75938508 0.23035588 -0.18072166 -0.15454607 0.030906251000000003 -0.075155368 -0.33687146 -0.23652244 0.017446446 0.031067472999999998 -0.11954177 -0.42609942 -0.78787868 -0.83315607 -0.69918239 -0.7868791 -0.91889446 -0.84977911 -0.82126556 -0.94243803 -0.9580671000000001 -0.90753234 -1.0062488 -1.125972 -1.2265875 -1.3745718999999998 -1.3621048 -1.2954596 -1.4603632 -1.6102178999999999 -1.6205738 -1.6907146 -1.7210371 -1.6819537 -1.6996601000000002 -1.6466202 -1.5376433999999999 -1.5190506000000001 -1.4401019 -1.2364728 -1.0722291000000002 -0.96042602 -0.82814727 -0.62651442 -0.38726802 -0.25290086 -0.15906052 0.025740575 0.14107311
0.75938508 0.23035588 -0.18072166 -0.15454607 0.030906251000000003 -0.075155368 -0.33687146 -0.23652244 0.017446446 0.031067472999999998 -0.11954177 -0.42609942 -0.78787868 -0.83315607 -0.69918239 -0.7868791 -0.91889446 -0.84977911 -0.82126556 -0.94243803 -0.9580671000000001 -0.90753234 -1.0062488 -1.125972 -1.2265875 -1.3745718999999998 -1.3621048 -1.2954596 -1.4603632 -1.6102178999999999 -1.6205738 -1.6907146 -1.7210371 -1.6819537 -1.6996601000000002 -1.6466202 -1.5376433999999999 -1.5190506000000001 -1.4401019 -1.2364728 -1.0722291000000002 -0.96042602 -0.82814727 -0.62651442 -0.38726802 -0.25290086 -0.15906052 0.025740575 0.14107311 0.17093826
0.23035588 -0.18072166 -0.15454607 0.030906251000000003 -0.075155368 -0.33687146 -0.23652244 0.017446446 0.031067472999999998 -0.11954177 -0.42609942 -0.78787868 -0.83315607 -0.69918239 -0.7868791 -0.91889446 -0.84977911 -0.82126556 -0.94243803 -0.9580671000000001 -0.90753234 -1.0062488 -1.125972 -1.2265875 -1.3745718999999998 -1.3621048 -1.2954596 -1.4603632 -1.6102178999999999 -1.6205738 -1.6907146 -1.7210371 -1.6819537 -1.6996601000000002 -1.6466202 -1.5376433999999999 -1.5190506000000001 -1.4401019 -1.2364728 -1.0722291000000002 -0.96042602 -0.82814727 -0.62651442 -0.38726802 -0.25290086 -0.15906052 0.025740575 0.14107311 0.17093826 0.30806218
-0.18072166 -0.15454607 0.030906251000000003 -0.075155368 -0.33687146 -0.23652244 0.017446446 0.031067472999999998 -0.11954177 -0.42609942 -0.78787868 -0.83315607 -0.69918239 -0.7868791 -0.91889446 -0.84977911 -0.82126556 -0.94243803 -0.9580671000000001 -0.90753234 -1.0062488 -1.125972 -1.2265875 -1.3745718999999998 -1.3621048 -1.2954596 -1.4603632 -1.6102178999999999 -1.6205738 -1.6907146 -1.7210371 -1.6819537 -1.6996601000000002 -1.6466202 -1.5376433999999999 -1.5190506000000001 -1.4401019 -1.2364728 -1.0722291000000002 -0.96042602 -0.82814727 -0.62651442 -0.38726802 -0.25290086 -0.15906052 0.025740575 0.14107311 0.17093826 0.30806218 0.41424251
-0.15454607 0.030906251000000003 -0.075155368 -0.33687146 -0.23652244 0.017446446 0.031067472999999998 -0.11954177 -0.42609942 -0.78787868 -0.83315607 -0.69918239 -0.7868791 -0.91889446 -0.84977911 -0.82126556 -0.94243803 -0.9580671000000001 -0.90753234 -1.0062488 -1.125972 -1.2265875 -1.3745718999999998 -1.3621048 -1.2954596 -1.4603632 -1.6102178999999999 -1.6205738 -1.6907146 -1.7210371 -1.6819537 -1.6996601000000002 -1.6466202 -1.5376433999999999 -1.5190506000000001 -1.4401019 -1.2364728 -1.0722291000000002 -0.96042602 -0.82814727 -0.62651442 -0.38726802 -0.25290086 -0.15906052 0.025740575 0.14107311 0.17093826 0.30806218 0.41424251 0.37436844
0.030906251000000003 -0.075155368 -0.33687146 -0.23652244 0.017446446 0.031067472999999998 -0.11954177 -0.42609942 -0.78787868 -0.83315607 -0.69918239 -0.7868791 -0.91889446 -0.84977911 -0.82126556 -0.94243803 -0.9580671000000001 -0.90753234 -1.0062488 -1.125972 -1.2265875 -1.3745718999999998 -1.3621048 -1.2954596 -1.4603632 -1.6102178999999999 -1.6205738 -1.6907146 -1.7210371 -1.6819537 -1.6996601000000002 -1.6466202 -1.5376433999999999 -1.5190506000000001 -1.4401019 -1.2364728 -1.0722291000000002 -0.96042602 -0.82814727 -0.62651442 -0.38726802 -0.25290086 -0.15906052 0.025740575 0.14107311 0.17093826 0.30806218 0.41424251 0.37436844 0.42253746
-0.075155368 -0.33687146 -0.23652244 0.017446446 0.031067472999999998 -0.11954177 -0.42609942 -0.78787868 -0.83315607 -0.69918239 -0.7868791 -0.91889446 -0.84977911 -0.82126556 -0.94243803 -0.9580671000000001 -0.90753234 -1.0062488 -1.125972 -1.2265875 -1.3745718999999998 -1.3621048 -1.2954596 -1.4603632 -1.6102178999999999 -1.6205738 -1.6907146 -1.7210371 -1.6819537 -1.6996601000000002 -1.6466202 -1.5376433999999999 -1.5190506000000001 -1.4401019 -1.2364728 -1.0722291000000002 -0.96042602 -0.82814727 -0.62651442 -0.38726802 -0.25290086 -0.15906052 0.025740575 0.14107311 0.17093826 0.30806218 0.41424251 0.37436844 0.42253746 0.55083151
-0.33687146 -0.23652244 0.017446446 0.031067472999999998 -0.11954177 -0.42609942 -0.78787868 -0.83315607 -0.69918239 -0.7868791 -0.91889446 -0.84977911 -0.82126556 -0.94243803 -0.9580671000000001 -0.90753234 -1.0062488 -1.125972 -1.2265875 -1.3745718999999998 -1.3621048 -1.2954596 -1.4603632 -1.6102178999999999 -1.6205738 -1.6907146 -1.7210371 -1.6819537 -1.6996601000000002 -1.6466202 -1.5376433999999999 -1.5190506000000001 -1.4401019 -1.2364728 -1.0722291000000002 -0.96042602 -0.82814727 -0.62651442 -0.38726802 -0.25290086 -0.15906052 0.025740575 0.14107311 0.17093826 0.30806218 0.41424251 0.37436844 0.42253746 0.55083151 0.51761864
-0.23652244 0.017446446 0.031067472999999998 -0.11954177 -0.42609942 -0.78787868 -0.83315607 -0.69918239 -0.7868791 -0.91889446 -0.84977911 -0.82126556 -0.94243803 -0.9580671000000001 -0.90753234 -1.0062488 -1.125972 -1.2265875 -1.3745718999999998 -1.3621048 -1.2954596 -1.4603632 -1.6102178999999999 -1.6205738 -1.6907146 -1.7210371 -1.6819537 -1.6996601000000002 -1.6466202 -1.5376433999999999 -1.5190506000000001 -1.4401019 -1.2364728 -1.0722291000000002 -0.96042602 -0.82814727 -0.62651442 -0.38726802 -0.25290086 -0.15906052 0.025740575 0.14107311 0.17093826 0.30806218 0.41424251 0.37436844 0.42253746 0.55083151 0.51761864 0.41464957
0.017446446 0.031067472999999998 -0.11954177 -0.42609942 -0.78787868 -0.83315607 -0.69918239 -0.7868791 -0.91889446 -0.84977911 -0.82126556 -0.94243803 -0.9580671000000001 -0.90753234 -1.0062488 -1.125972 -1.2265875 -1.3745718999999998 -1.3621048 -1.2954596 -1.4603632 -1.6102178999999999 -1.6205738 -1.6907146 -1.7210371 -1.6819537 -1.6996601000000002 -1.6466202 -1.5376433999999999 -1.5190506000000001 -1.4401019 -1.2364728 -1.0722291000000002 -0.96042602 -0.82814727 -0.62651442 -0.38726802 -0.25290086 -0.15906052 0.025740575 0.14107311 0.17093826 0.30806218 0.41424251 0.37436844 0.42253746 0.55083151 0.51761864 0.41464957 0.46229599
0.031067472999999998 -0.11954177 -0.42609942 -0.78787868 -0.83315607 -0.69918239 -0.7868791 -0.91889446 -0.84977911 -0.82126556 -0.94243803 -0.9580671000000001 -0.90753234 -1.0062488 -1.125972 -1.2265875 -1.3745718999999998 -1.3621048 -1.2954596 -1.4603632 -1.6102178999999999 -1.6205738 -1.6907146 -1.7210371 -1.6819537 -1.6996601000000002 -1.6466202 -1.5376433999999999 -1.5190506000000001 -1.4401019 -1.2364728 -1.0722291000000002 -0.96042602 -0.82814727 -0.62651442 -0.38726802 -0.25290086 -0.15906052 0.025740575 0.14107311 0.17093826 0.30806218 0.41424251 0.37436844 0.42253746 0.55083151 0.51761864 0.41464957 0.46229599 0.56861931
-0.11954177 -0.42609942 -0.78787868 -0.83315607 -0.69918239 -0.7868791 -0.91889446 -0.84977911 -0.82126556 -0.94243803 -0.9580671000000001 -0.90753234 -1.0062488 -1.125972 -1.2265875 -1.3745718999999998 -1.3621048 -1.2954596 -1.4603632 -1.6102178999999999 -1.6205738 -1.6907146 -1.7210371 -1.6819537 -1.6996601000000002 -1.6466202 -1.5376433999999999 -1.5190506000000001 -1.4401019 -1.2364728 -1.0722291000000002 -0.96042602 -0.82814727 -0.62651442 -0.38726802 -0.25290086 -0.15906052 0.025740575 0.14107311 0.17093826 0.30806218 0.41424251 0.37436844 0.42253746 0.55083151 0.51761864 0.41464957 0.46229599 0.56861931 0.54402707
-0.42609942 -0.78787868 -0.83315607 -0.69918239 -0.7868791 -0.91889446 -0.84977911 -0.82126556 -0.94243803 -0.9580671000000001 -0.90753234 -1.0062488 -1.125972 -1.2265875 -1.3745718999999998 -1.3621048 -1.2954596 -1.4603632 -1.6102178999999999 -1.6205738 -1.6907146 -1.7210371 -1.6819537 -1.6996601000000002 -1.6466202 -1.5376433999999999 -1.5190506000000001 -1.4401019 -1.2364728 -1.0722291000000002 -0.96042602 -0.82814727 -0.62651442 -0.38726802 -0.25290086 -0.15906052 0.025740575 0.14107311 0.17093826 0.30806218 0.41424251 0.37436844 0.42253746 0.55083151 0.51761864 0.41464957 0.46229599 0.56861931 0.54402707 0.46027884
-0.78787868 -0.83315607 -0.69918239 -0.7868791 -0.91889446 -0.84977911 -0.82126556 -0.94243803 -0.9580671000000001 -0.90753234 -1.0062488 -1.125972 -1.2265875 -1.3745718999999998 -1.3621048 -1.2954596 -1.4603632 -1.6102178999999999 -1.6205738 -1.6907146 -1.7210371 -1.6819537 -1.6996601000000002 -1.6466202 -1.5376433999999999 -1.5190506000000001 -1.4401019 -1.2364728 -1.0722291000000002 -0.96042602 -0.82814727 -0.62651442 -0.38726802 -0.25290086 -0.15906052 0.025740575 0.14107311 0.17093826 0.30806218 0.41424251 0.37436844 0.42253746 0.55083151 0.51761864 0.41464957 0.46229599 0.56861931 0.54402707 0.46027884 0.4835684
-0.83315607 -0.69918239 -0.7868791 -0.91889446 -0.84977911 -0.82126556 -0.94243803 -0.9580671000000001 -0.90753234 -1.0062488 -1.125972 -1.2265875 -1.3745718999999998 -1.3621048 -1.2954596 -1.4603632 -1.6102178999999999 -1.6205738 -1.6907146 -1.7210371 -1.6819537 -1.6996601000000002 -1.6466202 -1.5376433999999999 -1.5190506000000001 -1.4401019 -1.2364728 -1.0722291000000002 -0.96042602 -0.82814727 -0.62651442 -0.38726802 -0.25290086 -0.15906052 0.025740575 0.14107311 0.17093826 0.30806218 0.41424251 0.37436844 0.42253746 0.55083151 0.51761864 0.41464957 0.46229599 0.56861931 0.54402707 0.46027884 0.4835684 0.53347655
-0.69918239 -0.7868791 -0.91889446 -0.84977911 -0.82126556 -0.94243803 -0.9580671000000001 -0.90753234 -1.0062488 -1.125972 -1.2265875 -1.3745718999999998 -1.3621048 -1.2954596 -1.4603632 -1.6102178999999999 -1.6205738 -1.6907146 -1.7210371 -1.6819537 -1.6996601000000002 -1.6466202 -1.5376433999999999 -1.5190506000000001 -1.4401019 -1.2364728 -1.0722291000000002 -0.96042602 -0.82814727 -0.62651442 -0.38726802 -0.25290086 -0.15906052 0.025740575 0.14107311 0.17093826 0.30806218 0.41424251 0.37436844 0.42253746 0.55083151 0.51761864 0.41464957 0.46229599 0.56861931 0.54402707 0.46027884 0.4835684 0.53347655 0.48240607
-0.7868791 -0.91889446 -0.84977911 -0.82126556 -0.94243803 -0.9580671000000001 -0.90753234 -1.0062488 -1.125972 -1.2265875 -1.3745718999999998 -1.3621048 -1.2954596 -1.4603632 -1.6102178999999999 -1.6205738 -1.6907146 -1.7210371 -1.6819537 -1.6996601000000002 -1.6466202 -1.5376433999999999 -1.5190506000000001 -1.4401019 -1.2364728 -1.0722291000000002 -0.96042602 -0.82814727 -0.62651442 -0.38726802 -0.25290086 -0.15906052 0.025740575 0.14107311 0.17093826 0.30806218 0.41424251 0.37436844 0.42253746 0.55083151 0.51761864 0.41464957 0.46229599 0.56861931 0.54402707 0.46027884 0.4835684 0.53347655 0.48240607 0.44587169
-0.91889446 -0.84977911 -0.82126556 -0.94243803 -0.9580671000000001 -0.90753234 -1.0062488 -1.125972 -1.2265875 -1.3745718999999998 -1.3621048 -1.2954596 -1.4603632 -1.6102178999999999 -1.6205738 -1.6907146 -1.7210371 -1.6819537 -1.6996601000000002 -1.6466202 -1.5376433999999999 -1.5190506000000001 -1.4401019 -1.2364728 -1.0722291000000002 -0.96042602 -0.82814727 -0.62651442 -0.38726802 -0.25290086 -0.15906052 0.025740575 0.14107311 0.17093826 0.30806218 0.41424251 0.37436844 0.42253746 0.55083151 0.51761864 0.41464957 0.46229599 0.56861931 0.54402707 0.46027884 0.4835684 0.53347655 0.48240607 0.44587169 0.45746729
-0.84977911 -0.82126556 -0.94243803 -0.9580671000000001 -0.90753234 -1.0062488 -1.125972 -1.2265875 -1.3745718999999998 -1.3621048 -1.2954596 -1.4603632 -1.6102178999999999 -1.6205738 -1.6907146 -1.7210371 -1.6819537 -1.6996601000000002 -1.6466202 -1.5376433999999999 -1.5190506000000001 -1.4401019 -1.2364728 -1.0722291000000002 -0.96042602 -0.82814727 -0.62651442 -0.38726802 -0.25290086 -0.15906052 0.025740575 0.14107311 0.17093826 0.30806218 0.41424251 0.37436844 0.42253746 0.55083151 0.51761864 0.41464957 0.46229599 0.56861931 0.54402707 0.46027884 0.4835684 0.53347655 0.48240607 0.44587169 0.45746729 0.41793131
-0.82126556 -0.94243803 -0.9580671000000001 -0.90753234 -1.0062488 -1.125972 -1.2265875 -1.3745718999999998 -1.3621048 -1.2954596 -1.4603632 -1.6102178999999999 -1.6205738 -1.6907146 -1.7210371 -1.6819537 -1.6996601000000002 -1.6466202 -1.5376433999999999 -1.5190506000000001 -1.4401019 -1.2364728 -1.0722291000000002 -0.96042602 -0.82814727 -0.62651442 -0.38726802 -0.25290086 -0.15906052 0.025740575 0.14107311 0.17093826 0.30806218 0.41424251 0.37436844 0.42253746 0.55083151 0.51761864 0.41464957 0.46229599 0.56861931 0.54402707 0.46027884 0.4835684 0.53347655 0.48240607 0.44587169 0.45746729 0.41793131 0.47211456
-0.94243803 -0.9580671000000001 -0.90753234 -1.0062488 -1.125972 -1.2265875 -1.3745718999999998 -1.3621048 -1.2954596 -1.4603632 -1.6102178999999999 -1.6205738 -1.6907146 -1.7210371 -1.6819537 -1.6996601000000002 -1.6466202 -1.5376433999999999 -1.5190506000000001 -1.4401019 -1.2364728 -1.0722291000000002 -0.96042602 -0.82814727 -0.62651442 -0.38726802 -0.25290086 -0.15906052 0.025740575 0.14107311 0.17093826 0.30806218 0.41424251 0.37436844 0.42253746 0.55083151 0.51761864 0.41464957 0.46229599 0.56861931 0.54402707 0.46027884 0.4835684 0.53347655 0.48240607 0.44587169 0.45746729 0.41793131 0.47211456 0.62716251
-0.9580671000000001 -0.90753234 -1.0062488 -1.125972 -1.2265875 -1.3745718999999998 -1.3621048 -1.2954596 -1.4603632 -1.6102178999999999 -1.6205738 -1.6907146 -1.7210371 -1.6819537 -1.6996601000000002 -1.6466202 -1.5376433999999999 -1.5190506000000001 -1.4401019 -1.2364728 -1.0722291000000002 -0.96042602 -0.82814727 -0.62651442 -0.38726802 -0.25290086 -0.15906052 0.025740575 0.14107311 0.17093826 0.30806218 0.41424251 0.37436844 0.42253746 0.55083151 0.51761864 0.41464957 0.46229599 0.56861931 0.54402707 0.46027884 0.4835684 0.53347655 0.48240607 0.44587169 0.45746729 0.41793131 0.47211456 0.62716251 0.59303616
-0.90753234 -1.0062488 -1.125972 -1.2265875 -1.3745718999999998 -1.3621048 -1.2954596 -1.4603632 -1.6102178999999999 -1.6205738 -1.6907146 -1.7210371 -1.6819537 -1.6996601000000002 -1.6466202 -1.5376433999999999 -1.5190506000000001 -1.4401019 -1.2364728 -1.0722291000000002 -0.96042602 -0.82814727 -0.62651442 -0.38726802 -0.25290086 -0.15906052 0.025740575 0.14107311 0.17093826 0.30806218 0.41424251 0.37436844 0.42253746 0.55083151 0.51761864 0.41464957 0.46229599 0.56861931 0.54402707 0.46027884 0.4835684 0.53347655 0.48240607 0.44587169 0.45746729 0.41793131 0.47211456 0.62716251 0.59303616 0.48837218
-1.0062488 -1.125972 -1.2265875 -1.3745718999999998 -1.3621048 -1.2954596 -1.4603632 -1.6102178999999999 -1.6205738 -1.6907146 -1.7210371 -1.6819537 -1.6996601000000002 -1.6466202 -1.5376433999999999 -1.5190506000000001 -1.4401019 -1.2364728 -1.0722291000000002 -0.96042602 -0.82814727 -0.62651442 -0.38726802 -0.25290086 -0.15906052 0.025740575 0.14107311 0.17093826 0.30806218 0.41424251 0.37436844 0.42253746 0.55083151 0.51761864 0.41464957 0.46229599 0.56861931 0.54402707 0.46027884 0.4835684 0.53347655 0.48240607 0.44587169 0.45746729 0.41793131 0.47211456 0.62716251 0.59303616 0.48837218 0.57181713
-1.125972 -1.2265875 -1.3745718999999998 -1.3621048 -1.2954596 -1.4603632 -1.6102178999999999 -1.6205738 -1.6907146 -1.7210371 -1.6819537 -1.6996601000000002 -1.6466202 -1.5376433999999999 -1.5190506000000001 -1.4401019 -1.2364728 -1.0722291000000002 -0.96042602 -0.82814727 -0.62651442 -0.38726802 -0.25290086 -0.15906052 0.025740575 0.14107311 0.17093826 0.30806218 0.41424251 0.37436844 0.42253746 0.55083151 0.51761864 0.41464957 0.46229599 0.56861931 0.54402707 0.46027884 0.4835684 0.53347655 0.48240607 0.44587169 0.45746729 0.41793131 0.47211456 0.62716251 0.59303616 0.48837218 0.57181713 0.7081623
-1.2265875 -1.3745718999999998 -1.3621048 -1.2954596 -1.4603632 -1.6102178999999999 -1.6205738 -1.6907146 -1.7210371 -1.6819537 -1.6996601000000002 -1.6466202 -1.5376433999999999 -1.5190506000000001 -1.4401019 -1.2364728 -1.0722291000000002 -0.96042602 -0.82814727 -0.62651442 -0.38726802 -0.25290086 -0.15906052 0.025740575 0.14107311 0.17093826 0.30806218 0.41424251 0.37436844 0.42253746 0.55083151 0.51761864 0.41464957 0.46229599 0.56861931 0.54402707 0.46027884 0.4835684 0.53347655 0.48240607 0.44587169 0.45746729 0.41793131 0.47211456 0.62716251 0.59303616 0.48837218 0.57181713 0.7081623 0.85056025
-1.3745718999999998 -1.3621048 -1.2954596 -1.4603632 -1.6102178999999999 -1.6205738 -1.6907146 -1.7210371 -1.6819537 -1.6996601000000002 -1.6466202 -1.5376433999999999 -1.5190506000000001 -1.4401019 -1.2364728 -1.0722291000000002 -0.96042602 -0.82814727 -0.62651442 -0.38726802 -0.25290086 -0.15906052 0.025740575 0.14107311 0.17093826 0.30806218 0.41424251 0.37436844 0.42253746 0.55083151 0.51761864 0.41464957 0.46229599 0.56861931 0.54402707 0.46027884 0.4835684 0.53347655 0.48240607 0.44587169 0.45746729 0.41793131 0.47211456 0.62716251 0.59303616 0.48837218 0.57181713 0.7081623 0.85056025 0.99247237
-1.3621048 -1.2954596 -1.4603632 -1.6102178999999999 -1.6205738 -1.6907146 -1.7210371 -1.6819537 -1.6996601000000002 -1.6466202 -1.5376433999999999 -1.5190506000000001 -1.4401019 -1.2364728 -1.0722291000000002 -0.96042602 -0.82814727 -0.62651442 -0.38726802 -0.25290086 -0.15906052 0.025740575 0.14107311 0.17093826 0.30806218 0.41424251 0.37436844 0.42253746 0.55083151 0.51761864 0.41464957 0.46229599 0.56861931 0.54402707 0.46027884 0.4835684 0.53347655 0.48240607 0.44587169 0.45746729 0.41793131 0.47211456 0.62716251 0.59303616 0.48837218 0.57181713 0.7081623 0.85056025 0.99247237 0.98314222
-1.2954596 -1.4603632 -1.6102178999999999 -1.6205738 -1.6907146 -1.7210371 -1.6819537 -1.6996601000000002 -1.6466202 -1.5376433999999999 -1.5190506000000001 -1.4401019 -1.2364728 -1.0722291000000002 -0.96042602 -0.82814727 -0.62651442 -0.38726802 -0.25290086 -0.15906052 0.025740575 0.14107311 0.17093826 0.30806218 0.41424251 0.37436844 0.42253746 0.55083151 0.51761864 0.41464957 0.46229599 0.56861931 0.54402707 0.46027884 0.4835684 0.53347655 0.48240607 0.44587169 0.45746729 0.41793131 0.47211456 0.62716251 0.59303616 0.48837218 0.57181713 0.7081623 0.85056025 0.99247237 0.98314222 1.0070419
-1.4603632 -1.6102178999999999 -1.6205738 -1.6907146 -1.7210371 -1.6819537 -1.6996601000000002 -1.6466202 -1.5376433999999999 -1.5190506000000001 -1.4401019 -1.2364728 -1.0722291000000002 -0.96042602 -0.82814727 -0.62651442 -0.38726802 -0.25290086 -0.15906052 0.025740575 0.14107311 0.17093826 0.30806218 0.41424251 0.37436844 0.42253746 0.55083151 0.51761864 0.41464957 0.46229599 0.56861931 0.54402707 0.46027884 0.4835684 0.53347655 0.48240607 0.44587169 0.45746729 0.41793131 0.47211456 0.62716251 0.59303616 0.48837218 0.57181713 0.7081623 0.85056025 0.99247237 0.98314222 1.0070419 1.2195438
-1.6102178999999999 -1.6205738 -1.6907146 -1.7210371 -1.6819537 -1.6996601000000002 -1.6466202 -1.5376433999999999 -1.5190506000000001 -1.4401019 -1.2364728 -1.0722291000000002 -0.96042602 -0.82814727 -0.62651442 -0.38726802 -0.25290086 -0.15906052 0.025740575 0.14107311 0.17093826 0.30806218 0.41424251 0.37436844 0.42253746 0.55083151 0.51761864 0.41464957 0.46229599 0.56861931 0.54402707 0.46027884 0.4835684 0.53347655 0.48240607 0.44587169 0.45746729 0.41793131 0.47211456 0.62716251 0.59303616 0.48837218 0.57181713 0.7081623 0.85056025 0.99247237 0.98314222 1.0070419 1.2195438 1.3547613
-1.6205738 -1.6907146 -1.7210371 -1.6819537 -1.6996601000000002 -1.6466202 -1.5376433999999999 -1.5190506000000001 -1.4401019 -1.2364728 -1.0722291000000002 -0.96042602 -0.82814727 -0.62651442 -0.38726802 -0.25290086 -0.15906052 0.025740575 0.14107311 0.17093826 0.30806218 0.41424251 0.37436844 0.42253746 0.55083151 0.51761864 0.41464957 0.46229599 0.56861931 0.54402707 0.46027884 0.4835684 0.53347655 0.48240607 0.44587169 0.45746729 0.41793131 0.47211456 0.62716251 0.59303616 0.48837218 0.57181713 0.7081623 0.85056025 0.99247237 0.98314222 1.0070419 1.2195438 1.3547613 1.3755222
-1.6907146 -1.7210371 -1.6819537 -1.6996601000000002 -1.6466202 -1.5376433999999999 -1.5190506000000001 -1.4401019 -1.2364728 -1.0722291000000002 -0.96042602 -0.82814727 -0.62651442 -0.38726802 -0.25290086 -0.15906052 0.025740575 0.14107311 0.17093826 0.30806218 0.41424251 0.37436844 0.42253746 0.55083151 0.51761864 0.41464957 0.46229599 0.56861931 0.54402707 0.46027884 0.4835684 0.53347655 0.48240607 0.44587169 0.45746729 0.41793131 0.47211456 0.62716251 0.59303616 0.48837218 0.57181713 0.7081623 0.85056025 0.99247237 0.98314222 1.0070419 1.2195438 1.3547613 1.3755222 1.4532931
-1.7210371 -1.6819537 -1.6996601000000002 -1.6466202 -1.5376433999999999 -1.5190506000000001 -1.4401019 -1.2364728 -1.0722291000000002 -0.96042602 -0.82814727 -0.62651442 -0.38726802 -0.25290086 -0.15906052 0.025740575 0.14107311 0.17093826 0.30806218 0.41424251 0.37436844 0.42253746 0.55083151 0.51761864 0.41464957 0.46229599 0.56861931 0.54402707 0.46027884 0.4835684 0.53347655 0.48240607 0.44587169 0.45746729 0.41793131 0.47211456 0.62716251 0.59303616 0.48837218 0.57181713 0.7081623 0.85056025 0.99247237 0.98314222 1.0070419 1.2195438 1.3547613 1.3755222 1.4532931 1.4661577
-1.6819537 -1.6996601000000002 -1.6466202 -1.5376433999999999 -1.5190506000000001 -1.4401019 -1.2364728 -1.0722291000000002 -0.96042602 -0.82814727 -0.62651442 -0.38726802 -0.25290086 -0.15906052 0.025740575 0.14107311 0.17093826 0.30806218 0.41424251 0.37436844 0.42253746 0.55083151 0.51761864 0.41464957 0.46229599 0.56861931 0.54402707 0.46027884 0.4835684 0.53347655 0.48240607 0.44587169 0.45746729 0.41793131 0.47211456 0.62716251 0.59303616 0.48837218 0.57181713 0.7081623 0.85056025 0.99247237 0.98314222 1.0070419 1.2195438 1.3547613 1.3755222 1.4532931 1.4661577 1.3767513999999998
-1.6996601000000002 -1.6466202 -1.5376433999999999 -1.5190506000000001 -1.4401019 -1.2364728 -1.0722291000000002 -0.96042602 -0.82814727 -0.62651442 -0.38726802 -0.25290086 -0.15906052 0.025740575 0.14107311 0.17093826 0.30806218 0.41424251 0.37436844 0.42253746 0.55083151 0.51761864 0.41464957 0.46229599 0.56861931 0.54402707 0.46027884 0.4835684 0.53347655 0.48240607 0.44587169 0.45746729 0.41793131 0.47211456 0.62716251 0.59303616 0.48837218 0.57181713 0.7081623 0.85056025 0.99247237 0.98314222 1.0070419 1.2195438 1.3547613 1.3755222 1.4532931 1.4661577 1.3767513999999998 1.3916463
-1.6466202 -1.5376433999999999 -1.5190506000000001 -1.4401019 -1.2364728 -1.0722291000000002 -0.96042602 -0.82814727 -0.62651442 -0.38726802 -0.25290086 -0.15906052 0.025740575 0.14107311 0.17093826 0.30806218 0.41424251 0.37436844 0.42253746 0.55083151 0.51761864 0.41464957 0.46229599 0.56861931 0.54402707 0.46027884 0.4835684 0.53347655 0.48240607 0.44587169 0.45746729 0.41793131 0.47211456 0.62716251 0.59303616 0.48837218 0.57181713 0.7081623 0.85056025 0.99247237 0.98314222 1.0070419 1.2195438 1.3547613 1.3755222 1.4532931 1.4661577 1.3767513999999998 1.3916463 1.4369003
-1.5376433999999999 -1.5190506000000001 -1.4401019 -1.2364728 -1.0722291000000002 -0.96042602 -0.82814727 -0.62651442 -0.38726802 -0.25290086 -0.15906052 0.025740575 0.14107311 0.17093826 0.30806218 0.41424251 0.37436844 0.42253746 0.55083151 0.51761864 0.41464957 0.46229599 0.56861931 0.54402707 0.46027884 0.4835684 0.53347655 0.48240607 0.44587169 0.45746729 0.41793131 0.47211456 0.62716251 0.59303616 0.48837218 0.57181713 0.7081623 0.85056025 0.99247237 0.98314222 1.0070419 1.2195438 1.3547613 1.3755222 1.4532931 1.4661577 1.3767513999999998 1.3916463 1.4369003 1.2658986
-1.5190506000000001 -1.4401019 -1.2364728 -1.0722291000000002 -0.96042602 -0.82814727 -0.62651442 -0.38726802 -0.25290086 -0.15906052 0.025740575 0.14107311 0.17093826 0.30806218 0.41424251 0.37436844 0.42253746 0.55083151 0.51761864 0.41464957 0.46229599 0.56861931 0.54402707 0.46027884 0.4835684 0.53347655 0.48240607 0.44587169 0.45746729 0.41793131 0.47211456 0.62716251 0.59303616 0.48837218 0.57181713 0.7081623 0.85056025 0.99247237 0.98314222 1.0070419 1.2195438 1.3547613 1.3755222 1.4532931 1.4661577 1.3767513999999998 1.3916463 1.4369003 1.2658986 1.1425243
-1.4401019 -1.2364728 -1.0722291000000002 -0.96042602 -0.82814727 -0.62651442 -0.38726802 -0.25290086 -0.15906052 0.025740575 0.14107311 0.17093826 0.30806218 0.41424251 0.37436844 0.42253746 0.55083151 0.51761864 0.41464957 0.46229599 0.56861931 0.54402707 0.46027884 0.4835684 0.53347655 0.48240607 0.44587169 0.45746729 0.41793131 0.47211456 0.62716251 0.59303616 0.48837218 0.57181713 0.7081623 0.85056025 0.99247237 0.98314222 1.0070419 1.2195438 1.3547613 1.3755222 1.4532931 1.4661577 1.3767513999999998 1.3916463 1.4369003 1.2658986 1.1425243 1.326915
-1.2364728 -1.0722291000000002 -0.96042602 -0.82814727 -0.62651442 -0.38726802 -0.25290086 -0.15906052 0.025740575 0.14107311 0.17093826 0.30806218 0.41424251 0.37436844 0.42253746 0.55083151 0.51761864 0.41464957 0.46229599 0.56861931 0.54402707 0.46027884 0.4835684 0.53347655 0.48240607 0.44587169 0.45746729 0.41793131 0.47211456 0.62716251 0.59303616 0.48837218 0.57181713 0.7081623 0.85056025 0.99247237 0.98314222 1.0070419 1.2195438 1.3547613 1.3755222 1.4532931 1.4661577 1.3767513999999998 1.3916463 1.4369003 1.2658986 1.1425243 1.326915 1.4148013000000002
-1.0722291000000002 -0.96042602 -0.82814727 -0.62651442 -0.38726802 -0.25290086 -0.15906052 0.025740575 0.14107311 0.17093826 0.30806218 0.41424251 0.37436844 0.42253746 0.55083151 0.51761864 0.41464957 0.46229599 0.56861931 0.54402707 0.46027884 0.4835684 0.53347655 0.48240607 0.44587169 0.45746729 0.41793131 0.47211456 0.62716251 0.59303616 0.48837218 0.57181713 0.7081623 0.85056025 0.99247237 0.98314222 1.0070419 1.2195438 1.3547613 1.3755222 1.4532931 1.4661577 1.3767513999999998 1.3916463 1.4369003 1.2658986 1.1425243 1.326915 1.4148013000000002 0.80762715
-0.96042602 -0.82814727 -0.62651442 -0.38726802 -0.25290086 -0.15906052 0.025740575 0.14107311 0.17093826 0.30806218 0.41424251 0.37436844 0.42253746 0.55083151 0.51761864 0.41464957 0.46229599 0.56861931 0.54402707 0.46027884 0.4835684 0.53347655 0.48240607 0.44587169 0.45746729 0.41793131 0.47211456 0.62716251 0.59303616 0.48837218 0.57181713 0.7081623 0.85056025 0.99247237 0.98314222 1.0070419 1.2195438 1.3547613 1.3755222 1.4532931 1.4661577 1.3767513999999998 1.3916463 1.4369003 1.2658986 1.1425243 1.326915 1.4148013000000002 0.80762715 0.1164899
-0.82814727 -0.62651442 -0.38726802 -0.25290086 -0.15906052 0.025740575 0.14107311 0.17093826 0.30806218 0.41424251 0.37436844 0.42253746 0.55083151 0.51761864 0.41464957 0.46229599 0.56861931 0.54402707 0.46027884 0.4835684 0.53347655 0.48240607 0.44587169 0.45746729 0.41793131 0.47211456 0.62716251 0.59303616 0.48837218 0.57181713 0.7081623 0.85056025 0.99247237 0.98314222 1.0070419 1.2195438 1.3547613 1.3755222 1.4532931 1.4661577 1.3767513999999998 1.3916463 1.4369003 1.2658986 1.1425243 1.326915 1.4148013000000002 0.80762715 0.1164899 0.036514563
