0.29476758 0.86093158 2.4191877 3.4520527000000003 2.0206306 -0.019059688999999998 -0.99335938 -0.10652825 0.54713625 0.37580845 0.4727728 0.27377468 -0.23720976 -0.94233522 -0.68503094 -0.94911582 -1.0395398 -1.1689718999999998 -1.1913392 -0.9059242000000001 -1.3046853 -1.4366801000000002 -1.4286923999999999 -1.6120868999999998 -1.6178923 -1.7272275000000001 -1.6543127 -1.8647479 -2.0437025 -1.7881577000000002 -1.9843096000000002 -2.1426461 -1.4607454 -1.7978484000000001 -1.4780957000000001 -1.2309291 -0.79822123 -0.023287827 -0.47024091 0.15580858 0.59327217 0.79327638 0.88352643 0.9873341999999998 1.1383853000000002 0.98232369 1.0010214 0.83163539 0.90998926 0.84624751
0.86093158 2.4191877 3.4520527000000003 2.0206306 -0.019059688999999998 -0.99335938 -0.10652825 0.54713625 0.37580845 0.4727728 0.27377468 -0.23720976 -0.94233522 -0.68503094 -0.94911582 -1.0395398 -1.1689718999999998 -1.1913392 -0.9059242000000001 -1.3046853 -1.4366801000000002 -1.4286923999999999 -1.6120868999999998 -1.6178923 -1.7272275000000001 -1.6543127 -1.8647479 -2.0437025 -1.7881577000000002 -1.9843096000000002 -2.1426461 -1.4607454 -1.7978484000000001 -1.4780957000000001 -1.2309291 -0.79822123 -0.023287827 -0.47024091 0.15580858 0.59327217 0.79327638 0.88352643 0.9873341999999998 1.1383853000000002 0.98232369 1.0010214 0.83163539 0.90998926 0.84624751 0.64582257
2.4191877 3.4520527000000003 2.0206306 -0.019059688999999998 -0.99335938 -0.10652825 0.54713625 0.37580845 0.4727728 0.27377468 -0.23720976 -0.94233522 -0.68503094 -0.94911582 -1.0395398 -1.1689718999999998 -1.1913392 -0.9059242000000001 -1.3046853 -1.4366801000000002 -1.4286923999999999 -1.6120868999999998 -1.6178923 -1.7272275000000001 -1.6543127 -1.8647479 -2.0437025 -1.7881577000000002 -1.9843096000000002 -2.1426461 -1.4607454 -1.7978484000000001 -1.4780957000000001 -1.2309291 -0.79822123 -0.023287827 -0.47024091 0.15580858 0.59327217 0.79327638 0.88352643 0.9873341999999998 1.1383853000000002 0.98232369 1.0010214 0.83163539 0.90998926 0.84624751 0.64582257 0.69677522
3.4520527000000003 2.0206306 -0.019059688999999998 -0.99335938 -0.10652825 0.54713625 0.37580845 0.4727728 0.27377468 -0.23720976 -0.94233522 -0.68503094 -0.94911582 -1.0395398 -1.1689718999999998 -1.1913392 -0.9059242000000001 -1.3046853 -1.4366801000000002 -1.4286923999999999 -1.6120868999999998 -1.6178923 -1.7272275000000001 -1.6543127 -1.8647479 -2.0437025 -1.7881577000000002 -1.9843096000000002 -2.1426461 -1.4607454 -1.7978484000000001 -1.4780957000000001 -1.2309291 -0.79822123 -0.023287827 -0.47024091 0.15580858 0.59327217 0.79327638 0.88352643 0.9873341999999998 1.1383853000000002 0.98232369 1.0010214 0.83163539 0.90998926 0.84624751 0.64582257 0.69677522 0.69267685
2.0206306 -0.019059688999999998 -0.99335938 -0.10652825 0.54713625 0.37580845 0.4727728 0.27377468 -0.23720976 -0.94233522 -0.68503094 -0.94911582 -1.0395398 -1.1689718999999998 -1.1913392 -0.9059242000000001 -1.3046853 -1.4366801000000002 -1.4286923999999999 -1.6120868999999998 -1.6178923 -1.7272275000000001 -1.6543127 -1.8647479 -2.0437025 -1.7881577000000002 -1.9843096000000002 -2.1426461 -1.4607454 -1.7978484000000001 -1.4780957000000001 -1.2309291 -0.79822123 -0.023287827 -0.47024091 0.15580858 0.59327217 0.79327638 0.88352643 0.9873341999999998 1.1383853000000002 0.98232369 1.0010214 0.83163539 0.90998926 0.84624751 0.64582257 0.69677522 0.69267685 0.81807675
-0.019059688999999998 -0.99335938 -0.10652825 0.54713625 0.37580845 0.4727728 0.27377468 -0.23720976 -0.94233522 -0.68503094 -0.94911582 -1.0395398 -1.1689718999999998 -1.1913392 -0.9059242000000001 -1.3046853 -1.4366801000000002 -1.4286923999999999 -1.6120868999999998 -1.6178923 -1.7272275000000001 -1.6543127 -1.8647479 -2.0437025 -1.7881577000000002 -1.9843096000000002 -2.1426461 -1.4607454 -1.7978484000000001 -1.4780957000000001 -1.2309291 -0.79822123 -0.023287827 -0.47024091 0.15580858 0.59327217 0.79327638 0.88352643 0.9873341999999998 1.1383853000000002 0.98232369 1.0010214 0.83163539 0.90998926 0.84624751 0.64582257 0.69677522 0.69267685 0.81807675 0.50115958
-0.99335938 -0.10652825 0.54713625 0.37580845 0.4727728 0.27377468 -0.23720976 -0.94233522 -0.68503094 -0.94911582 -1.0395398 -1.1689718999999998 -1.1913392 -0.9059242000000001 -1.3046853 -1.4366801000000002 -1.4286923999999999 -1.6120868999999998 -1.6178923 -1.7272275000000001 -1.6543127 -1.8647479 -2.0437025 -1.7881577000000002 -1.9843096000000002 -2.1426461 -1.4607454 -1.7978484000000001 -1.4780957000000001 -1.2309291 -0.79822123 -0.023287827 -0.47024091 0.15580858 0.59327217 0.79327638 0.88352643 0.9873341999999998 1.1383853000000002 0.98232369 1.0010214 0.83163539 0.90998926 0.84624751 0.64582257 0.69677522 0.69267685 0.81807675 0.50115958 0.57804953
-0.10652825 0.54713625 0.37580845 0.4727728 0.27377468 -0.23720976 -0.94233522 -0.68503094 -0.94911582 -1.0395398 -1.1689718999999998 -1.1913392 -0.9059242000000001 -1.3046853 -1.4366801000000002 -1.4286923999999999 -1.6120868999999998 -1.6178923 -1.7272275000000001 -1.6543127 -1.8647479 -2.0437025 -1.7881577000000002 -1.9843096000000002 -2.1426461 -1.4607454 -1.7978484000000001 -1.4780957000000001 -1.2309291 -0.79822123 -0.023287827 -0.47024091 0.15580858 0.59327217 0.79327638 0.88352643 0.9873341999999998 1.1383853000000002 0.98232369 1.0010214 0.83163539 0.90998926 0.84624751 0.64582257 0.69677522 0.69267685 0.81807675 0.50115958 0.57804953 0.64158868
0.54713625 0.37580845 0.4727728 0.27377468 -0.23720976 -0.94233522 -0.68503094 -0.94911582 -1.0395398 -1.1689718999999998 -1.1913392 -0.9059242000000001 -1.3046853 -1.4366801000000002 -1.4286923999999999 -1.6120868999999998 -1.6178923 -1.7272275000000001 -1.6543127 -1.8647479 -2.0437025 -1.7881577000000002 -1.9843096000000002 -2.1426461 -1.4607454 -1.7978484000000001 -1.4780957000000001 -1.2309291 -0.79822123 -0.023287827 -0.47024091 0.15580858 0.59327217 0.79327638 0.88352643 0.9873341999999998 1.1383853000000002 0.98232369 1.0010214 0.83163539 0.90998926 0.84624751 0.64582257 0.69677522 0.69267685 0.81807675 0.50115958 0.57804953 0.64158868 0.65312703
0.37580845 0.4727728 0.27377468 -0.23720976 -0.94233522 -0.68503094 -0.94911582 -1.0395398 -1.1689718999999998 -1.1913392 -0.9059242000000001 -1.3046853 -1.4366801000000002 -1.4286923999999999 -1.6120868999999998 -1.6178923 -1.7272275000000001 -1.6543127 -1.8647479 -2.0437025 -1.7881577000000002 -1.9843096000000002 -2.1426461 -1.4607454 -1.7978484000000001 -1.4780957000000001 -1.2309291 -0.79822123 -0.023287827 -0.47024091 0.15580858 0.59327217 0.79327638 0.88352643 0.9873341999999998 1.1383853000000002 0.98232369 1.0010214 0.83163539 0.90998926 0.84624751 0.64582257 0.69677522 0.69267685 0.81807675 0.50115958 0.57804953 0.64158868 0.65312703 0.47728359
0.4727728 0.27377468 -0.23720976 -0.94233522 -0.68503094 -0.94911582 -1.0395398 -1.1689718999999998 -1.1913392 -0.9059242000000001 -1.3046853 -1.4366801000000002 -1.4286923999999999 -1.6120868999999998 -1.6178923 -1.7272275000000001 -1.6543127 -1.8647479 -2.0437025 -1.7881577000000002 -1.9843096000000002 -2.1426461 -1.4607454 -1.7978484000000001 -1.4780957000000001 -1.2309291 -0.79822123 -0.023287827 -0.47024091 0.15580858 0.59327217 0.79327638 0.88352643 0.9873341999999998 1.1383853000000002 0.98232369 1.0010214 0.83163539 0.90998926 0.84624751 0.64582257 0.69677522 0.69267685 0.81807675 0.50115958 0.57804953 0.64158868 0.65312703 0.47728359 0.49204638
0.27377468 -0.23720976 -0.94233522 -0.68503094 -0.94911582 -1.0395398 -1.1689718999999998 -1.1913392 -0.9059242000000001 -1.3046853 -1.4366801000000002 -1.4286923999999999 -1.6120868999999998 -1.6178923 -1.7272275000000001 -1.6543127 -1.8647479 -2.0437025 -1.7881577000000002 -1.9843096000000002 -2.1426461 -1.4607454 -1.7978484000000001 -1.4780957000000001 -1.2309291 -0.79822123 -0.023287827 -0.47024091 0.15580858 0.59327217 0.79327638 0.88352643 0.9873341999999998 1.1383853000000002 0.98232369 1.0010214 0.83163539 0.90998926 0.84624751 0.64582257 0.69677522 0.69267685 0.81807675 0.50115958 0.57804953 0.64158868 0.65312703 0.47728359 0.49204638 0.76712772
-0.23720976 -0.94233522 -0.68503094 -0.94911582 -1.0395398 -1.1689718999999998 -1.1913392 -0.9059242000000001 -1.3046853 -1.4366801000000002 -1.4286923999999999 -1.6120868999999998 -1.6178923 -1.7272275000000001 -1.6543127 -1.8647479 -2.0437025 -1.7881577000000002 -1.9843096000000002 -2.1426461 -1.4607454 -1.7978484000000001 -1.4780957000000001 -1.2309291 -0.79822123 -0.023287827 -0.47024091 0.15580858 0.59327217 0.79327638 0.88352643 0.9873341999999998 1.1383853000000002 0.98232369 1.0010214 0.83163539 0.90998926 0.84624751 0.64582257 0.69677522 0.69267685 0.81807675 0.50115958 0.57804953 0.64158868 0.65312703 0.47728359 0.49204638 0.76712772 0.53485721
-0.94233522 -0.68503094 -0.94911582 -1.0395398 -1.1689718999999998 -1.1913392 -0.9059242000000001 -1.3046853 -1.4366801000000002 -1.4286923999999999 -1.6120868999999998 -1.6178923 -1.7272275000000001 -1.6543127 -1.8647479 -2.0437025 -1.7881577000000002 -1.9843096000000002 -2.1426461 -1.4607454 -1.7978484000000001 -1.4780957000000001 -1.2309291 -0.79822123 -0.023287827 -0.47024091 0.15580858 0.59327217 0.79327638 0.88352643 0.9873341999999998 1.1383853000000002 0.98232369 1.0010214 0.83163539 0.90998926 0.84624751 0.64582257 0.69677522 0.69267685 0.81807675 0.50115958 0.57804953 0.64158868 0.65312703 0.47728359 0.49204638 0.76712772 0.53485721 0.42846829
-0.68503094 -0.94911582 -1.0395398 -1.1689718999999998 -1.1913392 -0.9059242000000001 -1.3046853 -1.4366801000000002 -1.4286923999999999 -1.6120868999999998 -1.6178923 -1.7272275000000001 -1.6543127 -1.8647479 -2.0437025 -1.7881577000000002 -1.9843096000000002 -2.1426461 -1.4607454 -1.7978484000000001 -1.4780957000000001 -1.2309291 -0.79822123 -0.023287827 -0.47024091 0.15580858 0.59327217 0.79327638 0.88352643 0.9873341999999998 1.1383853000000002 0.98232369 1.0010214 0.83163539 0.90998926 0.84624751 0.64582257 0.69677522 0.69267685 0.81807675 0.50115958 0.57804953 0.64158868 0.65312703 0.47728359 0.49204638 0.76712772 0.53485721 0.42846829 0.50443169
-0.94911582 -1.0395398 -1.1689718999999998 -1.1913392 -0.9059242000000001 -1.3046853 -1.4366801000000002 -1.4286923999999999 -1.6120868999999998 -1.6178923 -1.7272275000000001 -1.6543127 -1.8647479 -2.0437025 -1.7881577000000002 -1.9843096000000002 -2.1426461 -1.4607454 -1.7978484000000001 -1.4780957000000001 -1.2309291 -0.79822123 -0.023287827 -0.47024091 0.15580858 0.59327217 0.79327638 0.88352643 0.9873341999999998 1.1383853000000002 0.98232369 1.0010214 0.83163539 0.90998926 0.84624751 0.64582257 0.69677522 0.69267685 0.81807675 0.50115958 0.57804953 0.64158868 0.65312703 0.47728359 0.49204638 0.76712772 0.53485721 0.42846829 0.50443169 0.36799917
-1.0395398 -1.1689718999999998 -1.1913392 -0.9059242000000001 -1.3046853 -1.4366801000000002 -1.4286923999999999 -1.6120868999999998 -1.6178923 -1.7272275000000001 -1.6543127 -1.8647479 -2.0437025 -1.7881577000000002 -1.9843096000000002 -2.1426461 -1.4607454 -1.7978484000000001 -1.4780957000000001 -1.2309291 -0.79822123 -0.023287827 -0.47024091 0.15580858 0.59327217 0.79327638 0.88352643 0.9873341999999998 1.1383853000000002 0.98232369 1.0010214 0.83163539 0.90998926 0.84624751 0.64582257 0.69677522 0.69267685 0.81807675 0.50115958 0.57804953 0.64158868 0.65312703 0.47728359 0.49204638 0.76712772 0.53485721 0.42846829 0.50443169 0.36799917 0.27068227
-1.1689718999999998 -1.1913392 -0.9059242000000001 -1.3046853 -1.4366801000000002 -1.4286923999999999 -1.6120868999999998 -1.6178923 -1.7272275000000001 -1.6543127 -1.8647479 -2.0437025 -1.7881577000000002 -1.9843096000000002 -2.1426461 -1.4607454 -1.7978484000000001 -1.4780957000000001 -1.2309291 -0.79822123 -0.023287827 -0.47024091 0.15580858 0.59327217 0.79327638 0.88352643 0.9873341999999998 1.1383853000000002 0.98232369 1.0010214 0.83163539 0.90998926 0.84624751 0.64582257 0.69677522 0.69267685 0.81807675 0.50115958 0.57804953 0.64158868 0.65312703 0.47728359 0.49204638 0.76712772 0.53485721 0.42846829 0.50443169 0.36799917 0.27068227 0.35391793
-1.1913392 -0.9059242000000001 -1.3046853 -1.4366801000000002 -1.4286923999999999 -1.6120868999999998 -1.6178923 -1.7272275000000001 -1.6543127 -1.8647479 -2.0437025 -1.7881577000000002 -1.9843096000000002 -2.1426461 -1.4607454 -1.7978484000000001 -1.4780957000000001 -1.2309291 -0.79822123 -0.023287827 -0.47024091 0.15580858 0.59327217 0.79327638 0.88352643 0.9873341999999998 1.1383853000000002 0.98232369 1.0010214 0.83163539 0.90998926 0.84624751 0.64582257 0.69677522 0.69267685 0.81807675 0.50115958 0.57804953 0.64158868 0.65312703 0.47728359 0.49204638 0.76712772 0.53485721 0.42846829 0.50443169 0.36799917 0.27068227 0.35391793 0.36476282
-0.9059242000000001 -1.3046853 -1.4366801000000002 -1.4286923999999999 -1.6120868999999998 -1.6178923 -1.7272275000000001 -1.6543127 -1.8647479 -2.0437025 -1.7881577000000002 -1.9843096000000002 -2.1426461 -1.4607454 -1.7978484000000001 -1.4780957000000001 -1.2309291 -0.79822123 -0.023287827 -0.47024091 0.15580858 0.59327217 0.79327638 0.88352643 0.9873341999999998 1.1383853000000002 0.98232369 1.0010214 0.83163539 0.90998926 0.84624751 0.64582257 0.69677522 0.69267685 0.81807675 0.50115958 0.57804953 0.64158868 0.65312703 0.47728359 0.49204638 0.76712772 0.53485721 0.42846829 0.50443169 0.36799917 0.27068227 0.35391793 0.36476282 0.16523965
-1.3046853 -1.4366801000000002 -1.4286923999999999 -1.6120868999999998 -1.6178923 -1.7272275000000001 -1.6543127 -1.8647479 -2.0437025 -1.7881577000000002 -1.9843096000000002 -2.1426461 -1.4607454 -1.7978484000000001 -1.4780957000000001 -1.2309291 -0.79822123 -0.023287827 -0.47024091 0.15580858 0.59327217 0.79327638 0.88352643 0.9873341999999998 1.1383853000000002 0.98232369 1.0010214 0.83163539 0.90998926 0.84624751 0.64582257 0.69677522 0.69267685 0.81807675 0.50115958 0.57804953 0.64158868 0.65312703 0.47728359 0.49204638 0.76712772 0.53485721 0.42846829 0.50443169 0.36799917 0.27068227 0.35391793 0.36476282 0.16523965 0.24950479
-1.4366801000000002 -1.4286923999999999 -1.6120868999999998 -1.6178923 -1.7272275000000001 -1.6543127 -1.8647479 -2.0437025 -1.7881577000000002 -1.9843096000000002 -2.1426461 -1.4607454 -1.7978484000000001 -1.4780957000000001 -1.2309291 -0.79822123 -0.023287827 -0.47024091 0.15580858 0.59327217 0.79327638 0.88352643 0.9873341999999998 1.1383853000000002 0.98232369 1.0010214 0.83163539 0.90998926 0.84624751 0.64582257 0.69677522 0.69267685 0.81807675 0.50115958 0.57804953 0.64158868 0.65312703 0.47728359 0.49204638 0.76712772 0.53485721 0.42846829 0.50443169 0.36799917 0.27068227 0.35391793 0.36476282 0.16523965 0.24950479 0.23825738
-1.4286923999999999 -1.6120868999999998 -1.6178923 -1.7272275000000001 -1.6543127 -1.8647479 -2.0437025 -1.7881577000000002 -1.9843096000000002 -2.1426461 -1.4607454 -1.7978484000000001 -1.4780957000000001 -1.2309291 -0.79822123 -0.023287827 -0.47024091 0.15580858 0.59327217 0.79327638 0.88352643 0.9873341999999998 1.1383853000000002 0.98232369 1.0010214 0.83163539 0.90998926 0.84624751 0.64582257 0.69677522 0.69267685 0.81807675 0.50115958 0.57804953 0.64158868 0.65312703 0.47728359 0.49204638 0.76712772 0.53485721 0.42846829 0.50443169 0.36799917 0.27068227 0.35391793 0.36476282 0.16523965 0.24950479 0.23825738 0.34175502
-1.6120868999999998 -1.6178923 -1.7272275000000001 -1.6543127 -1.8647479 -2.0437025 -1.7881577000000002 -1.9843096000000002 -2.1426461 -1.4607454 -1.7978484000000001 -1.4780957000000001 -1.2309291 -0.79822123 -0.023287827 -0.47024091 0.15580858 0.59327217 0.79327638 0.88352643 0.9873341999999998 1.1383853000000002 0.98232369 1.0010214 0.83163539 0.90998926 0.84624751 0.64582257 0.69677522 0.69267685 0.81807675 0.50115958 0.57804953 0.64158868 0.65312703 0.47728359 0.49204638 0.76712772 0.53485721 0.42846829 0.50443169 0.36799917 0.27068227 0.35391793 0.36476282 0.16523965 0.24950479 0.23825738 0.34175502 0.30403988
-1.6178923 -1.7272275000000001 -1.6543127 -1.8647479 -2.0437025 -1.7881577000000002 -1.9843096000000002 -2.1426461 -1.4607454 -1.7978484000000001 -1.4780957000000001 -1.2309291 -0.79822123 -0.023287827 -0.47024091 0.15580858 0.59327217 0.79327638 0.88352643 0.9873341999999998 1.1383853000000002 0.98232369 1.0010214 0.83163539 0.90998926 0.84624751 0.64582257 0.69677522 0.69267685 0.81807675 0.50115958 0.57804953 0.64158868 0.65312703 0.47728359 0.49204638 0.76712772 0.53485721 0.42846829 0.50443169 0.36799917 0.27068227 0.35391793 0.36476282 0.16523965 0.24950479 0.23825738 0.34175502 0.30403988 0.6617561
-1.7272275000000001 -1.6543127 -1.8647479 -2.0437025 -1.7881577000000002 -1.9843096000000002 -2.1426461 -1.4607454 -1.7978484000000001 -1.4780957000000001 -1.2309291 -0.79822123 -0.023287827 -0.47024091 0.15580858 0.59327217 0.79327638 0.88352643 0.9873341999999998 1.1383853000000002 0.98232369 1.0010214 0.83163539 0.90998926 0.84624751 0.64582257 0.69677522 0.69267685 0.81807675 0.50115958 0.57804953 0.64158868 0.65312703 0.47728359 0.49204638 0.76712772 0.53485721 0.42846829 0.50443169 0.36799917 0.27068227 0.35391793 0.36476282 0.16523965 0.24950479 0.23825738 0.34175502 0.30403988 0.6617561 0.93488793
-1.6543127 -1.8647479 -2.0437025 -1.7881577000000002 -1.9843096000000002 -2.1426461 -1.4607454 -1.7978484000000001 -1.4780957000000001 -1.2309291 -0.79822123 -0.023287827 -0.47024091 0.15580858 0.59327217 0.79327638 0.88352643 0.9873341999999998 1.1383853000000002 0.98232369 1.0010214 0.83163539 0.90998926 0.84624751 0.64582257 0.69677522 0.69267685 0.81807675 0.50115958 0.57804953 0.64158868 0.65312703 0.47728359 0.49204638 0.76712772 0.53485721 0.42846829 0.50443169 0.36799917 0.27068227 0.35391793 0.36476282 0.16523965 0.24950479 0.23825738 0.34175502 0.30403988 0.6617561 0.93488793 0.5931076999999999
-1.8647479 -2.0437025 -1.7881577000000002 -1.9843096000000002 -2.1426461 -1.4607454 -1.7978484000000001 -1.4780957000000001 -1.2309291 -0.79822123 -0.023287827 -0.47024091 0.15580858 0.59327217 0.79327638 0.88352643 0.9873341999999998 1.1383853000000002 0.98232369 1.0010214 0.83163539 0.90998926 0.84624751 0.64582257 0.69677522 0.69267685 0.81807675 0.50115958 0.57804953 0.64158868 0.65312703 0.47728359 0.49204638 0.76712772 0.53485721 0.42846829 0.50443169 0.36799917 0.27068227 0.35391793 0.36476282 0.16523965 0.24950479 0.23825738 0.34175502 0.30403988 0.6617561 0.93488793 0.5931076999999999 0.57686895
-2.0437025 -1.7881577000000002 -1.9843096000000002 -2.1426461 -1.4607454 -1.7978484000000001 -1.4780957000000001 -1.2309291 -0.79822123 -0.023287827 -0.47024091 0.15580858 0.59327217 0.79327638 0.88352643 0.9873341999999998 1.1383853000000002 0.98232369 1.0010214 0.83163539 0.90998926 0.84624751 0.64582257 0.69677522 0.69267685 0.81807675 0.50115958 0.57804953 0.64158868 0.65312703 0.47728359 0.49204638 0.76712772 0.53485721 0.42846829 0.50443169 0.36799917 0.27068227 0.35391793 0.36476282 0.16523965 0.24950479 0.23825738 0.34175502 0.30403988 0.6617561 0.93488793 0.5931076999999999 0.57686895 0.47873224
-1.7881577000000002 -1.9843096000000002 -2.1426461 -1.4607454 -1.7978484000000001 -1.4780957000000001 -1.2309291 -0.79822123 -0.023287827 -0.47024091 0.15580858 0.59327217 0.79327638 0.88352643 0.9873341999999998 1.1383853000000002 0.98232369 1.0010214 0.83163539 0.90998926 0.84624751 0.64582257 0.69677522 0.69267685 0.81807675 0.50115958 0.57804953 0.64158868 0.65312703 0.47728359 0.49204638 0.76712772 0.53485721 0.42846829 0.50443169 0.36799917 0.27068227 0.35391793 0.36476282 0.16523965 0.24950479 0.23825738 0.34175502 0.30403988 0.6617561 0.93488793 0.5931076999999999 0.57686895 0.47873224 0.38042193
-1.9843096000000002 -2.1426461 -1.4607454 -1.7978484000000001 -1.4780957000000001 -1.2309291 -0.79822123 -0.023287827 -0.47024091 0.15580858 0.59327217 0.79327638 0.88352643 0.9873341999999998 1.1383853000000002 0.98232369 1.0010214 0.83163539 0.90998926 0.84624751 0.64582257 0.69677522 0.69267685 0.81807675 0.50115958 0.57804953 0.64158868 0.65312703 0.47728359 0.49204638 0.76712772 0.53485721 0.42846829 0.50443169 0.36799917 0.27068227 0.35391793 0.36476282 0.16523965 0.24950479 0.23825738 0.34175502 0.30403988 0.6617561 0.93488793 0.5931076999999999 0.57686895 0.47873224 0.38042193 0.38979563
-2.1426461 -1.4607454 -1.7978484000000001 -1.4780957000000001 -1.2309291 -0.79822123 -0.023287827 -0.47024091 0.15580858 0.59327217 0.79327638 0.88352643 0.9873341999999998 1.1383853000000002 0.98232369 1.0010214 0.83163539 0.90998926 0.84624751 0.64582257 0.69677522 0.69267685 0.81807675 0.50115958 0.57804953 0.64158868 0.65312703 0.47728359 0.49204638 0.76712772 0.53485721 0.42846829 0.50443169 0.36799917 0.27068227 0.35391793 0.36476282 0.16523965 0.24950479 0.23825738 0.34175502 0.30403988 0.6617561 0.93488793 0.5931076999999999 0.57686895 0.47873224 0.38042193 0.38979563 0.055126152000000005
-1.4607454 -1.7978484000000001 -1.4780957000000001 -1.2309291 -0.79822123 -0.023287827 -0.47024091 0.15580858 0.59327217 0.79327638 0.88352643 0.9873341999999998 1.1383853000000002 0.98232369 1.0010214 0.83163539 0.90998926 0.84624751 0.64582257 0.69677522 0.69267685 0.81807675 0.50115958 0.57804953 0.64158868 0.65312703 0.47728359 0.49204638 0.76712772 0.53485721 0.42846829 0.50443169 0.36799917 0.27068227 0.35391793 0.36476282 0.16523965 0.24950479 0.23825738 0.34175502 0.30403988 0.6617561 0.93488793 0.5931076999999999 0.57686895 0.47873224 0.38042193 0.38979563 0.055126152000000005 0.04853402
-1.7978484000000001 -1.4780957000000001 -1.2309291 -0.79822123 -0.023287827 -0.47024091 0.15580858 0.59327217 0.79327638 0.88352643 0.9873341999999998 1.1383853000000002 0.98232369 1.0010214 0.83163539 0.90998926 0.84624751 0.64582257 0.69677522 0.69267685 0.81807675 0.50115958 0.57804953 0.64158868 0.65312703 0.47728359 0.49204638 0.76712772 0.53485721 0.42846829 0.50443169 0.36799917 0.27068227 0.35391793 0.36476282 0.16523965 0.24950479 0.23825738 0.34175502 0.30403988 0.6617561 0.93488793 0.5931076999999999 0.57686895 0.47873224 0.38042193 0.38979563 0.055126152000000005 0.04853402 0.02372686
-1.4780957000000001 -1.2309291 -0.79822123 -0.023287827 -0.47024091 0.15580858 0.59327217 0.79327638 0.88352643 0.9873341999999998 1.1383853000000002 0.98232369 1.0010214 0.83163539 0.90998926 0.84624751 0.64582257 0.69677522 0.69267685 0.81807675 0.50115958 0.57804953 0.64158868 0.65312703 0.47728359 0.49204638 0.76712772 0.53485721 0.42846829 0.50443169 0.36799917 0.27068227 0.35391793 0.36476282 0.16523965 0.24950479 0.23825738 0.34175502 0.30403988 0.6617561 0.93488793 0.5931076999999999 0.57686895 0.47873224 0.38042193 0.38979563 0.055126152000000005 0.04853402 0.02372686 0.018429521
-1.2309291 -0.79822123 -0.023287827 -0.47024091 0.15580858 0.59327217 0.79327638 0.88352643 0.9873341999999998 1.1383853000000002 0.98232369 1.0010214 0.83163539 0.90998926 0.84624751 0.64582257 0.69677522 0.69267685 0.81807675 0.50115958 0.57804953 0.64158868 0.65312703 0.47728359 0.49204638 0.76712772 0.53485721 0.42846829 0.50443169 0.36799917 0.27068227 0.35391793 0.36476282 0.16523965 0.24950479 0.23825738 0.34175502 0.30403988 0.6617561 0.93488793 0.5931076999999999 0.57686895 0.47873224 0.38042193 0.38979563 0.055126152000000005 0.04853402 0.02372686 0.018429521 0.37602929
-0.79822123 -0.023287827 -0.47024091 0.15580858 0.59327217 0.79327638 0.88352643 0.9873341999999998 1.1383853000000002 0.98232369 1.0010214 0.83163539 0.90998926 0.84624751 0.64582257 0.69677522 0.69267685 0.81807675 0.50115958 0.57804953 0.64158868 0.65312703 0.47728359 0.49204638 0.76712772 0.53485721 0.42846829 0.50443169 0.36799917 0.27068227 0.35391793 0.36476282 0.16523965 0.24950479 0.23825738 0.34175502 0.30403988 0.6617561 0.93488793 0.5931076999999999 0.57686895 0.47873224 0.38042193 0.38979563 0.055126152000000005 0.04853402 0.02372686 0.018429521 0.37602929 -0.0049700637
-0.023287827 -0.47024091 0.15580858 0.59327217 0.79327638 0.88352643 0.9873341999999998 1.1383853000000002 0.98232369 1.0010214 0.83163539 0.90998926 0.84624751 0.64582257 0.69677522 0.69267685 0.81807675 0.50115958 0.57804953 0.64158868 0.65312703 0.47728359 0.49204638 0.76712772 0.53485721 0.42846829 0.50443169 0.36799917 0.27068227 0.35391793 0.36476282 0.16523965 0.24950479 0.23825738 0.34175502 0.30403988 0.6617561 0.93488793 0.5931076999999999 0.57686895 0.47873224 0.38042193 0.38979563 0.055126152000000005 0.04853402 0.02372686 0.018429521 0.37602929 -0.0049700637 -0.16130870000000003
-0.47024091 0.15580858 0.59327217 0.79327638 0.88352643 0.9873341999999998 1.1383853000000002 0.98232369 1.0010214 0.83163539 0.90998926 0.84624751 0.64582257 0.69677522 0.69267685 0.81807675 0.50115958 0.57804953 0.64158868 0.65312703 0.47728359 0.49204638 0.76712772 0.53485721 0.42846829 0.50443169 0.36799917 0.27068227 0.35391793 0.36476282 0.16523965 0.24950479 0.23825738 0.34175502 0.30403988 0.6617561 0.93488793 0.5931076999999999 0.57686895 0.47873224 0.38042193 0.38979563 0.055126152000000005 0.04853402 0.02372686 0.018429521 0.37602929 -0.0049700637 -0.16130870000000003 0.081796239
0.15580858 0.59327217 0.79327638 0.88352643 0.9873341999999998 1.1383853000000002 0.98232369 1.0010214 0.83163539 0.90998926 0.84624751 0.64582257 0.69677522 0.69267685 0.81807675 0.50115958 0.57804953 0.64158868 0.65312703 0.47728359 0.49204638 0.76712772 0.53485721 0.42846829 0.50443169 0.36799917 0.27068227 0.35391793 0.36476282 0.16523965 0.24950479 0.23825738 0.34175502 0.30403988 0.6617561 0.93488793 0.5931076999999999 0.57686895 0.47873224 0.38042193 0.38979563 0.055126152000000005 0.04853402 0.02372686 0.018429521 0.37602929 -0.0049700637 -0.16130870000000003 0.081796239 0.11986411
0.59327217 0.79327638 0.88352643 0.9873341999999998 1.1383853000000002 0.98232369 1.0010214 0.83163539 0.90998926 0.84624751 0.64582257 0.69677522 0.69267685 0.81807675 0.50115958 0.57804953 0.64158868 0.65312703 0.47728359 0.49204638 0.76712772 0.53485721 0.42846829 0.50443169 0.36799917 0.27068227 0.35391793 0.36476282 0.16523965 0.24950479 0.23825738 0.34175502 0.30403988 0.6617561 0.93488793 0.5931076999999999 0.57686895 0.47873224 0.38042193 0.38979563 0.055126152000000005 0.04853402 0.02372686 0.018429521 0.37602929 -0.0049700637 -0.16130870000000003 0.081796239 0.11986411 -0.23885135
0.79327638 0.88352643 0.9873341999999998 1.1383853000000002 0.98232369 1.0010214 0.83163539 0.90998926 0.84624751 0.64582257 0.69677522 0.69267685 0.81807675 0.50115958 0.57804953 0.64158868 0.65312703 0.47728359 0.49204638 0.76712772 0.53485721 0.42846829 0.50443169 0.36799917 0.27068227 0.35391793 0.36476282 0.16523965 0.24950479 0.23825738 0.34175502 0.30403988 0.6617561 0.93488793 0.5931076999999999 0.57686895 0.47873224 0.38042193 0.38979563 0.055126152000000005 0.04853402 0.02372686 0.018429521 0.37602929 -0.0049700637 -0.16130870000000003 0.081796239 0.11986411 -0.23885135 0.19561679999999998
0.88352643 0.9873341999999998 1.1383853000000002 0.98232369 1.0010214 0.83163539 0.90998926 0.84624751 0.64582257 0.69677522 0.69267685 0.81807675 0.50115958 0.57804953 0.64158868 0.65312703 0.47728359 0.49204638 0.76712772 0.53485721 0.42846829 0.50443169 0.36799917 0.27068227 0.35391793 0.36476282 0.16523965 0.24950479 0.23825738 0.34175502 0.30403988 0.6617561 0.93488793 0.5931076999999999 0.57686895 0.47873224 0.38042193 0.38979563 0.055126152000000005 0.04853402 0.02372686 0.018429521 0.37602929 -0.0049700637 -0.16130870000000003 0.081796239 0.11986411 -0.23885135 0.19561679999999998 0.078485501
0.9873341999999998 1.1383853000000002 0.98232369 1.0010214 0.83163539 0.90998926 0.84624751 0.64582257 0.69677522 0.69267685 0.81807675 0.50115958 0.57804953 0.64158868 0.65312703 0.47728359 0.49204638 0.76712772 0.53485721 0.42846829 0.50443169 0.36799917 0.27068227 0.35391793 0.36476282 0.16523965 0.24950479 0.23825738 0.34175502 0.30403988 0.6617561 0.93488793 0.5931076999999999 0.57686895 0.47873224 0.38042193 0.38979563 0.055126152000000005 0.04853402 0.02372686 0.018429521 0.37602929 -0.0049700637 -0.16130870000000003 0.081796239 0.11986411 -0.23885135 0.19561679999999998 0.078485501 -0.15695041
1.1383853000000002 0.98232369 1.0010214 0.83163539 0.90998926 0.84624751 0.64582257 0.69677522 0.69267685 0.81807675 0.50115958 0.57804953 0.64158868 0.65312703 0.47728359 0.49204638 0.76712772 0.53485721 0.42846829 0.50443169 0.36799917 0.27068227 0.35391793 0.36476282 0.16523965 0.24950479 0.23825738 0.34175502 0.30403988 0.6617561 0.93488793 0.5931076999999999 0.57686895 0.47873224 0.38042193 0.38979563 0.055126152000000005 0.04853402 0.02372686 0.018429521 0.37602929 -0.0049700637 -0.16130870000000003 0.081796239 0.11986411 -0.23885135 0.19561679999999998 0.078485501 -0.15695041 0.16256033
0.98232369 1.0010214 0.83163539 0.90998926 0.84624751 0.64582257 0.69677522 0.69267685 0.81807675 0.50115958 0.57804953 0.64158868 0.65312703 0.47728359 0.49204638 0.76712772 0.53485721 0.42846829 0.50443169 0.36799917 0.27068227 0.35391793 0.36476282 0.16523965 0.24950479 0.23825738 0.34175502 0.30403988 0.6617561 0.93488793 0.5931076999999999 0.57686895 0.47873224 0.38042193 0.38979563 0.055126152000000005 0.04853402 0.02372686 0.018429521 0.37602929 -0.0049700637 -0.16130870000000003 0.081796239 0.11986411 -0.23885135 0.19561679999999998 0.078485501 -0.15695041 0.16256033 -0.006183096999999999
1.0010214 0.83163539 0.90998926 0.84624751 0.64582257 0.69677522 0.69267685 0.81807675 0.50115958 0.57804953 0.64158868 0.65312703 0.47728359 0.49204638 0.76712772 0.53485721 0.42846829 0.50443169 0.36799917 0.27068227 0.35391793 0.36476282 0.16523965 0.24950479 0.23825738 0.34175502 0.30403988 0.6617561 0.93488793 0.5931076999999999 0.57686895 0.47873224 0.38042193 0.38979563 0.055126152000000005 0.04853402 0.02372686 0.018429521 0.37602929 -0.0049700637 -0.16130870000000003 0.081796239 0.11986411 -0.23885135 0.19561679999999998 0.078485501 -0.15695041 0.16256033 -0.006183096999999999 0.56791545
