0.5807386 1.0971106000000002 1.7440563999999998 2.2783712000000005 2.3894875 2.3484163 1.9432379000000002 1.2774838 0.65341422 0.081747746 0.092010301 0.27164682 -0.22371300000000002 -0.31928843 0.15733927 0.033266963999999996 -0.27660464 -0.41546890000000003 -0.70769902 -0.7798772 -0.70635123 -0.82926454 -0.88312444 -0.78555149 -0.81218301 -1.159634 -1.4024688 -1.1439035 -1.1505973999999999 -1.6302565 -1.677548 -1.5217353 -1.7507134999999998 -1.990933 -2.086291 -2.0731697000000002 -1.911572 -1.8444633999999998 -1.8266953000000001 -1.7047512999999999 -1.5924942 -1.4081611 -1.0672233 -0.73239867 -0.6140475999999999 -0.62365533 -0.30255211 0.11621277 0.055411688 0.066442751
1.0971106000000002 1.7440563999999998 2.2783712000000005 2.3894875 2.3484163 1.9432379000000002 1.2774838 0.65341422 0.081747746 0.092010301 0.27164682 -0.22371300000000002 -0.31928843 0.15733927 0.033266963999999996 -0.27660464 -0.41546890000000003 -0.70769902 -0.7798772 -0.70635123 -0.82926454 -0.88312444 -0.78555149 -0.81218301 -1.159634 -1.4024688 -1.1439035 -1.1505973999999999 -1.6302565 -1.677548 -1.5217353 -1.7507134999999998 -1.990933 -2.086291 -2.0731697000000002 -1.911572 -1.8444633999999998 -1.8266953000000001 -1.7047512999999999 -1.5924942 -1.4081611 -1.0672233 -0.73239867 -0.6140475999999999 -0.62365533 -0.30255211 0.11621277 0.055411688 0.066442751 0.42332142
1.7440563999999998 2.2783712000000005 2.3894875 2.3484163 1.9432379000000002 1.2774838 0.65341422 0.081747746 0.092010301 0.27164682 -0.22371300000000002 -0.31928843 0.15733927 0.033266963999999996 -0.27660464 -0.41546890000000003 -0.70769902 -0.7798772 -0.70635123 -0.82926454 -0.88312444 -0.78555149 -0.81218301 -1.159634 -1.4024688 -1.1439035 -1.1505973999999999 -1.6302565 -1.677548 -1.5217353 -1.7507134999999998 -1.990933 -2.086291 -2.0731697000000002 -1.911572 -1.8444633999999998 -1.8266953000000001 -1.7047512999999999 -1.5924942 -1.4081611 -1.0672233 -0.73239867 -0.6140475999999999 -0.62365533 -0.30255211 0.11621277 0.055411688 0.066442751 0.42332142 0.45323058
2.2783712000000005 2.3894875 2.3484163 1.9432379000000002 1.2774838 0.65341422 0.081747746 0.092010301 0.27164682 -0.22371300000000002 -0.31928843 0.15733927 0.033266963999999996 -0.27660464 -0.41546890000000003 -0.70769902 -0.7798772 -0.70635123 -0.82926454 -0.88312444 -0.78555149 -0.81218301 -1.159634 -1.4024688 -1.1439035 -1.1505973999999999 -1.6302565 -1.677548 -1.5217353 -1.7507134999999998 -1.990933 -2.086291 -2.0731697000000002 -1.911572 -1.8444633999999998 -1.8266953000000001 -1.7047512999999999 -1.5924942 -1.4081611 -1.0672233 -0.73239867 -0.6140475999999999 -0.62365533 -0.30255211 0.11621277 0.055411688 0.066442751 0.42332142 0.45323058 0.30669245
2.3894875 2.3484163 1.9432379000000002 1.2774838 0.65341422 0.081747746 0.092010301 0.27164682 -0.22371300000000002 -0.31928843 0.15733927 0.033266963999999996 -0.27660464 -0.41546890000000003 -0.70769902 -0.7798772 -0.70635123 -0.82926454 -0.88312444 -0.78555149 -0.81218301 -1.159634 -1.4024688 -1.1439035 -1.1505973999999999 -1.6302565 -1.677548 -1.5217353 -1.7507134999999998 -1.990933 -2.086291 -2.0731697000000002 -1.911572 -1.8444633999999998 -1.8266953000000001 -1.7047512999999999 -1.5924942 -1.4081611 -1.0672233 -0.73239867 -0.6140475999999999 -0.62365533 -0.30255211 0.11621277 0.055411688 0.066442751 0.42332142 0.45323058 0.30669245 0.35921726
2.3484163 1.9432379000000002 1.2774838 0.65341422 0.081747746 0.092010301 0.27164682 -0.22371300000000002 -0.31928843 0.15733927 0.033266963999999996 -0.27660464 -0.41546890000000003 -0.70769902 -0.7798772 -0.70635123 -0.82926454 -0.88312444 -0.78555149 -0.81218301 -1.159634 -1.4024688 -1.1439035 -1.1505973999999999 -1.6302565 -1.677548 -1.5217353 -1.7507134999999998 -1.990933 -2.086291 -2.0731697000000002 -1.911572 -1.8444633999999998 -1.8266953000000001 -1.7047512999999999 -1.5924942 -1.4081611 -1.0672233 -0.73239867 -0.6140475999999999 -0.62365533 -0.30255211 0.11621277 0.055411688 0.066442751 0.42332142 0.45323058 0.30669245 0.35921726 0.36960693
1.9432379000000002 1.2774838 0.65341422 0.081747746 0.092010301 0.27164682 -0.22371300000000002 -0.31928843 0.15733927 0.033266963999999996 -0.27660464 -0.41546890000000003 -0.70769902 -0.7798772 -0.70635123 -0.82926454 -0.88312444 -0.78555149 -0.81218301 -1.159634 -1.4024688 -1.1439035 -1.1505973999999999 -1.6302565 -1.677548 -1.5217353 -1.7507134999999998 -1.990933 -2.086291 -2.0731697000000002 -1.911572 -1.8444633999999998 -1.8266953000000001 -1.7047512999999999 -1.5924942 -1.4081611 -1.0672233 -0.73239867 -0.6140475999999999 -0.62365533 -0.30255211 0.11621277 0.055411688 0.066442751 0.42332142 0.45323058 0.30669245 0.35921726 0.36960693 0.38301222
1.2774838 0.65341422 0.081747746 0.092010301 0.27164682 -0.22371300000000002 -0.31928843 0.15733927 0.033266963999999996 -0.27660464 -0.41546890000000003 -0.70769902 -0.7798772 -0.70635123 -0.82926454 -0.88312444 -0.78555149 -0.81218301 -1.159634 -1.4024688 -1.1439035 -1.1505973999999999 -1.6302565 -1.677548 -1.5217353 -1.7507134999999998 -1.990933 -2.086291 -2.0731697000000002 -1.911572 -1.8444633999999998 -1.8266953000000001 -1.7047512999999999 -1.5924942 -1.4081611 -1.0672233 -0.73239867 -0.6140475999999999 -0.62365533 -0.30255211 0.11621277 0.055411688 0.066442751 0.42332142 0.45323058 0.30669245 0.35921726 0.36960693 0.38301222 0.47176348
0.65341422 0.081747746 0.092010301 0.27164682 -0.22371300000000002 -0.31928843 0.15733927 0.033266963999999996 -0.27660464 -0.41546890000000003 -0.70769902 -0.7798772 -0.70635123 -0.82926454 -0.88312444 -0.78555149 -0.81218301 -1.159634 -1.4024688 -1.1439035 -1.1505973999999999 -1.6302565 -1.677548 -1.5217353 -1.7507134999999998 -1.990933 -2.086291 -2.0731697000000002 -1.911572 -1.8444633999999998 -1.8266953000000001 -1.7047512999999999 -1.5924942 -1.4081611 -1.0672233 -0.73239867 -0.6140475999999999 -0.62365533 -0.30255211 0.11621277 0.055411688 0.066442751 0.42332142 0.45323058 0.30669245 0.35921726 0.36960693 0.38301222 0.47176348 0.46110431
0.081747746 0.092010301 0.27164682 -0.22371300000000002 -0.31928843 0.15733927 0.033266963999999996 -0.27660464 -0.41546890000000003 -0.70769902 -0.7798772 -0.70635123 -0.82926454 -0.88312444 -0.78555149 -0.81218301 -1.159634 -1.4024688 -1.1439035 -1.1505973999999999 -1.6302565 -1.677548 -1.5217353 -1.7507134999999998 -1.990933 -2.086291 -2.0731697000000002 -1.911572 -1.8444633999999998 -1.8266953000000001 -1.7047512999999999 -1.5924942 -1.4081611 -1.0672233 -0.73239867 -0.6140475999999999 -0.62365533 -0.30255211 0.11621277 0.055411688 0.066442751 0.42332142 0.45323058 0.30669245 0.35921726 0.36960693 0.38301222 0.47176348 0.46110431 0.37373316
0.092010301 0.27164682 -0.22371300000000002 -0.31928843 0.15733927 0.033266963999999996 -0.27660464 -0.41546890000000003 -0.70769902 -0.7798772 -0.70635123 -0.82926454 -0.88312444 -0.78555149 -0.81218301 -1.159634 -1.4024688 -1.1439035 -1.1505973999999999 -1.6302565 -1.677548 -1.5217353 -1.7507134999999998 -1.990933 -2.086291 -2.0731697000000002 -1.911572 -1.8444633999999998 -1.8266953000000001 -1.7047512999999999 -1.5924942 -1.4081611 -1.0672233 -0.73239867 -0.6140475999999999 -0.62365533 -0.30255211 0.11621277 0.055411688 0.066442751 0.42332142 0.45323058 0.30669245 0.35921726 0.36960693 0.38301222 0.47176348 0.46110431 0.37373316 0.29326044
0.27164682 -0.22371300000000002 -0.31928843 0.15733927 0.033266963999999996 -0.27660464 -0.41546890000000003 -0.70769902 -0.7798772 -0.70635123 -0.82926454 -0.88312444 -0.78555149 -0.81218301 -1.159634 -1.4024688 -1.1439035 -1.1505973999999999 -1.6302565 -1.677548 -1.5217353 -1.7507134999999998 -1.990933 -2.086291 -2.0731697000000002 -1.911572 -1.8444633999999998 -1.8266953000000001 -1.7047512999999999 -1.5924942 -1.4081611 -1.0672233 -0.73239867 -0.6140475999999999 -0.62365533 -0.30255211 0.11621277 0.055411688 0.066442751 0.42332142 0.45323058 0.30669245 0.35921726 0.36960693 0.38301222 0.47176348 0.46110431 0.37373316 0.29326044 0.28570498
-0.22371300000000002 -0.31928843 0.15733927 0.033266963999999996 -0.27660464 -0.41546890000000003 -0.70769902 -0.7798772 -0.70635123 -0.82926454 -0.88312444 -0.78555149 -0.81218301 -1.159634 -1.4024688 -1.1439035 -1.1505973999999999 -1.6302565 -1.677548 -1.5217353 -1.7507134999999998 -1.990933 -2.086291 -2.0731697000000002 -1.911572 -1.8444633999999998 -1.8266953000000001 -1.7047512999999999 -1.5924942 -1.4081611 -1.0672233 -0.73239867 -0.6140475999999999 -0.62365533 -0.30255211 0.11621277 0.055411688 0.066442751 0.42332142 0.45323058 0.30669245 0.35921726 0.36960693 0.38301222 0.47176348 0.46110431 0.37373316 0.29326044 0.28570498 0.33948809
-0.31928843 0.15733927 0.033266963999999996 -0.27660464 -0.41546890000000003 -0.70769902 -0.7798772 -0.70635123 -0.82926454 -0.88312444 -0.78555149 -0.81218301 -1.159634 -1.4024688 -1.1439035 -1.1505973999999999 -1.6302565 -1.677548 -1.5217353 -1.7507134999999998 -1.990933 -2.086291 -2.0731697000000002 -1.911572 -1.8444633999999998 -1.8266953000000001 -1.7047512999999999 -1.5924942 -1.4081611 -1.0672233 -0.73239867 -0.6140475999999999 -0.62365533 -0.30255211 0.11621277 0.055411688 0.066442751 0.42332142 0.45323058 0.30669245 0.35921726 0.36960693 0.38301222 0.47176348 0.46110431 0.37373316 0.29326044 0.28570498 0.33948809 0.36271362
0.15733927 0.033266963999999996 -0.27660464 -0.41546890000000003 -0.70769902 -0.7798772 -0.70635123 -0.82926454 -0.88312444 -0.78555149 -0.81218301 -1.159634 -1.4024688 -1.1439035 -1.1505973999999999 -1.6302565 -1.677548 -1.5217353 -1.7507134999999998 -1.990933 -2.086291 -2.0731697000000002 -1.911572 -1.8444633999999998 -1.8266953000000001 -1.7047512999999999 -1.5924942 -1.4081611 -1.0672233 -0.73239867 -0.6140475999999999 -0.62365533 -0.30255211 0.11621277 0.055411688 0.066442751 0.42332142 0.45323058 0.30669245 0.35921726 0.36960693 0.38301222 0.47176348 0.46110431 0.37373316 0.29326044 0.28570498 0.33948809 0.36271362 0.38574687
0.033266963999999996 -0.27660464 -0.41546890000000003 -0.70769902 -0.7798772 -0.70635123 -0.82926454 -0.88312444 -0.78555149 -0.81218301 -1.159634 -1.4024688 -1.1439035 -1.1505973999999999 -1.6302565 -1.677548 -1.5217353 -1.7507134999999998 -1.990933 -2.086291 -2.0731697000000002 -1.911572 -1.8444633999999998 -1.8266953000000001 -1.7047512999999999 -1.5924942 -1.4081611 -1.0672233 -0.73239867 -0.6140475999999999 -0.62365533 -0.30255211 0.11621277 0.055411688 0.066442751 0.42332142 0.45323058 0.30669245 0.35921726 0.36960693 0.38301222 0.47176348 0.46110431 0.37373316 0.29326044 0.28570498 0.33948809 0.36271362 0.38574687 0.37504944
-0.27660464 -0.41546890000000003 -0.70769902 -0.7798772 -0.70635123 -0.82926454 -0.88312444 -0.78555149 -0.81218301 -1.159634 -1.4024688 -1.1439035 -1.1505973999999999 -1.6302565 -1.677548 -1.5217353 -1.7507134999999998 -1.990933 -2.086291 -2.0731697000000002 -1.911572 -1.8444633999999998 -1.8266953000000001 -1.7047512999999999 -1.5924942 -1.4081611 -1.0672233 -0.73239867 -0.6140475999999999 -0.62365533 -0.30255211 0.11621277 0.055411688 0.066442751 0.42332142 0.45323058 0.30669245 0.35921726 0.36960693 0.38301222 0.47176348 0.46110431 0.37373316 0.29326044 0.28570498 0.33948809 0.36271362 0.38574687 0.37504944 0.32928201
-0.41546890000000003 -0.70769902 -0.7798772 -0.70635123 -0.82926454 -0.88312444 -0.78555149 -0.81218301 -1.159634 -1.4024688 -1.1439035 -1.1505973999999999 -1.6302565 -1.677548 -1.5217353 -1.7507134999999998 -1.990933 -2.086291 -2.0731697000000002 -1.911572 -1.8444633999999998 -1.8266953000000001 -1.7047512999999999 -1.5924942 -1.4081611 -1.0672233 -0.73239867 -0.6140475999999999 -0.62365533 -0.30255211 0.11621277 0.055411688 0.066442751 0.42332142 0.45323058 0.30669245 0.35921726 0.36960693 0.38301222 0.47176348 0.46110431 0.37373316 0.29326044 0.28570498 0.33948809 0.36271362 0.38574687 0.37504944 0.32928201 0.36494342
-0.70769902 -0.7798772 -0.70635123 -0.82926454 -0.88312444 -0.78555149 -0.81218301 -1.159634 -1.4024688 -1.1439035 -1.1505973999999999 -1.6302565 -1.677548 -1.5217353 -1.7507134999999998 -1.990933 -2.086291 -2.0731697000000002 -1.911572 -1.8444633999999998 -1.8266953000000001 -1.7047512999999999 -1.5924942 -1.4081611 -1.0672233 -0.73239867 -0.6140475999999999 -0.62365533 -0.30255211 0.11621277 0.055411688 0.066442751 0.42332142 0.45323058 0.30669245 0.35921726 0.36960693 0.38301222 0.47176348 0.46110431 0.37373316 0.29326044 0.28570498 0.33948809 0.36271362 0.38574687 0.37504944 0.32928201 0.36494342 0.36740252
-0.7798772 -0.70635123 -0.82926454 -0.88312444 -0.78555149 -0.81218301 -1.159634 -1.4024688 -1.1439035 -1.1505973999999999 -1.6302565 -1.677548 -1.5217353 -1.7507134999999998 -1.990933 -2.086291 -2.0731697000000002 -1.911572 -1.8444633999999998 -1.8266953000000001 -1.7047512999999999 -1.5924942 -1.4081611 -1.0672233 -0.73239867 -0.6140475999999999 -0.62365533 -0.30255211 0.11621277 0.055411688 0.066442751 0.42332142 0.45323058 0.30669245 0.35921726 0.36960693 0.38301222 0.47176348 0.46110431 0.37373316 0.29326044 0.28570498 0.33948809 0.36271362 0.38574687 0.37504944 0.32928201 0.36494342 0.36740252 0.35875166
-0.70635123 -0.82926454 -0.88312444 -0.78555149 -0.81218301 -1.159634 -1.4024688 -1.1439035 -1.1505973999999999 -1.6302565 -1.677548 -1.5217353 -1.7507134999999998 -1.990933 -2.086291 -2.0731697000000002 -1.911572 -1.8444633999999998 -1.8266953000000001 -1.7047512999999999 -1.5924942 -1.4081611 -1.0672233 -0.73239867 -0.6140475999999999 -0.62365533 -0.30255211 0.11621277 0.055411688 0.066442751 0.42332142 0.45323058 0.30669245 0.35921726 0.36960693 0.38301222 0.47176348 0.46110431 0.37373316 0.29326044 0.28570498 0.33948809 0.36271362 0.38574687 0.37504944 0.32928201 0.36494342 0.36740252 0.35875166 0.52162501
-0.82926454 -0.88312444 -0.78555149 -0.81218301 -1.159634 -1.4024688 -1.1439035 -1.1505973999999999 -1.6302565 -1.677548 -1.5217353 -1.7507134999999998 -1.990933 -2.086291 -2.0731697000000002 -1.911572 -1.8444633999999998 -1.8266953000000001 -1.7047512999999999 -1.5924942 -1.4081611 -1.0672233 -0.73239867 -0.6140475999999999 -0.62365533 -0.30255211 0.11621277 0.055411688 0.066442751 0.42332142 0.45323058 0.30669245 0.35921726 0.36960693 0.38301222 0.47176348 0.46110431 0.37373316 0.29326044 0.28570498 0.33948809 0.36271362 0.38574687 0.37504944 0.32928201 0.36494342 0.36740252 0.35875166 0.52162501 0.62974813
-0.88312444 -0.78555149 -0.81218301 -1.159634 -1.4024688 -1.1439035 -1.1505973999999999 -1.6302565 -1.677548 -1.5217353 -1.7507134999999998 -1.990933 -2.086291 -2.0731697000000002 -1.911572 -1.8444633999999998 -1.8266953000000001 -1.7047512999999999 -1.5924942 -1.4081611 -1.0672233 -0.73239867 -0.6140475999999999 -0.62365533 -0.30255211 0.11621277 0.055411688 0.066442751 0.42332142 0.45323058 0.30669245 0.35921726 0.36960693 0.38301222 0.47176348 0.46110431 0.37373316 0.29326044 0.28570498 0.33948809 0.36271362 0.38574687 0.37504944 0.32928201 0.36494342 0.36740252 0.35875166 0.52162501 0.62974813 0.6374475000000001
-0.78555149 -0.81218301 -1.159634 -1.4024688 -1.1439035 -1.1505973999999999 -1.6302565 -1.677548 -1.5217353 -1.7507134999999998 -1.990933 -2.086291 -2.0731697000000002 -1.911572 -1.8444633999999998 -1.8266953000000001 -1.7047512999999999 -1.5924942 -1.4081611 -1.0672233 -0.73239867 -0.6140475999999999 -0.62365533 -0.30255211 0.11621277 0.055411688 0.066442751 0.42332142 0.45323058 0.30669245 0.35921726 0.36960693 0.38301222 0.47176348 0.46110431 0.37373316 0.29326044 0.28570498 0.33948809 0.36271362 0.38574687 0.37504944 0.32928201 0.36494342 0.36740252 0.35875166 0.52162501 0.62974813 0.6374475000000001 0.8201197
-0.81218301 -1.159634 -1.4024688 -1.1439035 -1.1505973999999999 -1.6302565 -1.677548 -1.5217353 -1.7507134999999998 -1.990933 -2.086291 -2.0731697000000002 -1.911572 -1.8444633999999998 -1.8266953000000001 -1.7047512999999999 -1.5924942 -1.4081611 -1.0672233 -0.73239867 -0.6140475999999999 -0.62365533 -0.30255211 0.11621277 0.055411688 0.066442751 0.42332142 0.45323058 0.30669245 0.35921726 0.36960693 0.38301222 0.47176348 0.46110431 0.37373316 0.29326044 0.28570498 0.33948809 0.36271362 0.38574687 0.37504944 0.32928201 0.36494342 0.36740252 0.35875166 0.52162501 0.62974813 0.6374475000000001 0.8201197 1.0291188
-1.159634 -1.4024688 -1.1439035 -1.1505973999999999 -1.6302565 -1.677548 -1.5217353 -1.7507134999999998 -1.990933 -2.086291 -2.0731697000000002 -1.911572 -1.8444633999999998 -1.8266953000000001 -1.7047512999999999 -1.5924942 -1.4081611 -1.0672233 -0.73239867 -0.6140475999999999 -0.62365533 -0.30255211 0.11621277 0.055411688 0.066442751 0.42332142 0.45323058 0.30669245 0.35921726 0.36960693 0.38301222 0.47176348 0.46110431 0.37373316 0.29326044 0.28570498 0.33948809 0.36271362 0.38574687 0.37504944 0.32928201 0.36494342 0.36740252 0.35875166 0.52162501 0.62974813 0.6374475000000001 0.8201197 1.0291188 1.070825
-1.4024688 -1.1439035 -1.1505973999999999 -1.6302565 -1.677548 -1.5217353 -1.7507134999999998 -1.990933 -2.086291 -2.0731697000000002 -1.911572 -1.8444633999999998 -1.8266953000000001 -1.7047512999999999 -1.5924942 -1.4081611 -1.0672233 -0.73239867 -0.6140475999999999 -0.62365533 -0.30255211 0.11621277 0.055411688 0.066442751 0.42332142 0.45323058 0.30669245 0.35921726 0.36960693 0.38301222 0.47176348 0.46110431 0.37373316 0.29326044 0.28570498 0.33948809 0.36271362 0.38574687 0.37504944 0.32928201 0.36494342 0.36740252 0.35875166 0.52162501 0.62974813 0.6374475000000001 0.8201197 1.0291188 1.070825 1.0505703000000002
-1.1439035 -1.1505973999999999 -1.6302565 -1.677548 -1.5217353 -1.7507134999999998 -1.990933 -2.086291 -2.0731697000000002 -1.911572 -1.8444633999999998 -1.8266953000000001 -1.7047512999999999 -1.5924942 -1.4081611 -1.0672233 -0.73239867 -0.6140475999999999 -0.62365533 -0.30255211 0.11621277 0.055411688 0.066442751 0.42332142 0.45323058 0.30669245 0.35921726 0.36960693 0.38301222 0.47176348 0.46110431 0.37373316 0.29326044 0.28570498 0.33948809 0.36271362 0.38574687 0.37504944 0.32928201 0.36494342 0.36740252 0.35875166 0.52162501 0.62974813 0.6374475000000001 0.8201197 1.0291188 1.070825 1.0505703000000002 0.93059661
-1.1505973999999999 -1.6302565 -1.677548 -1.5217353 -1.7507134999999998 -1.990933 -2.086291 -2.0731697000000002 -1.911572 -1.8444633999999998 -1.8266953000000001 -1.7047512999999999 -1.5924942 -1.4081611 -1.0672233 -0.73239867 -0.6140475999999999 -0.62365533 -0.30255211 0.11621277 0.055411688 0.066442751 0.42332142 0.45323058 0.30669245 0.35921726 0.36960693 0.38301222 0.47176348 0.46110431 0.37373316 0.29326044 0.28570498 0.33948809 0.36271362 0.38574687 0.37504944 0.32928201 0.36494342 0.36740252 0.35875166 0.52162501 0.62974813 0.6374475000000001 0.8201197 1.0291188 1.070825 1.0505703000000002 0.93059661 0.71313129
-1.6302565 -1.677548 -1.5217353 -1.7507134999999998 -1.990933 -2.086291 -2.0731697000000002 -1.911572 -1.8444633999999998 -1.8266953000000001 -1.7047512999999999 -1.5924942 -1.4081611 -1.0672233 -0.73239867 -0.6140475999999999 -0.62365533 -0.30255211 0.11621277 0.055411688 0.066442751 0.42332142 0.45323058 0.30669245 0.35921726 0.36960693 0.38301222 0.47176348 0.46110431 0.37373316 0.29326044 0.28570498 0.33948809 0.36271362 0.38574687 0.37504944 0.32928201 0.36494342 0.36740252 0.35875166 0.52162501 0.62974813 0.6374475000000001 0.8201197 1.0291188 1.070825 1.0505703000000002 0.93059661 0.71313129 0.68223114
-1.677548 -1.5217353 -1.7507134999999998 -1.990933 -2.086291 -2.0731697000000002 -1.911572 -1.8444633999999998 -1.8266953000000001 -1.7047512999999999 -1.5924942 -1.4081611 -1.0672233 -0.73239867 -0.6140475999999999 -0.62365533 -0.30255211 0.11621277 0.055411688 0.066442751 0.42332142 0.45323058 0.30669245 0.35921726 0.36960693 0.38301222 0.47176348 0.46110431 0.37373316 0.29326044 0.28570498 0.33948809 0.36271362 0.38574687 0.37504944 0.32928201 0.36494342 0.36740252 0.35875166 0.52162501 0.62974813 0.6374475000000001 0.8201197 1.0291188 1.070825 1.0505703000000002 0.93059661 0.71313129 0.68223114 0.73019617
-1.5217353 -1.7507134999999998 -1.990933 -2.086291 -2.0731697000000002 -1.911572 -1.8444633999999998 -1.8266953000000001 -1.7047512999999999 -1.5924942 -1.4081611 -1.0672233 -0.73239867 -0.6140475999999999 -0.62365533 -0.30255211 0.11621277 0.055411688 0.066442751 0.42332142 0.45323058 0.30669245 0.35921726 0.36960693 0.38301222 0.47176348 0.46110431 0.37373316 0.29326044 0.28570498 0.33948809 0.36271362 0.38574687 0.37504944 0.32928201 0.36494342 0.36740252 0.35875166 0.52162501 0.62974813 0.6374475000000001 0.8201197 1.0291188 1.070825 1.0505703000000002 0.93059661 0.71313129 0.68223114 0.73019617 0.6047155
-1.7507134999999998 -1.990933 -2.086291 -2.0731697000000002 -1.911572 -1.8444633999999998 -1.8266953000000001 -1.7047512999999999 -1.5924942 -1.4081611 -1.0672233 -0.73239867 -0.6140475999999999 -0.62365533 -0.30255211 0.11621277 0.055411688 0.066442751 0.42332142 0.45323058 0.30669245 0.35921726 0.36960693 0.38301222 0.47176348 0.46110431 0.37373316 0.29326044 0.28570498 0.33948809 0.36271362 0.38574687 0.37504944 0.32928201 0.36494342 0.36740252 0.35875166 0.52162501 0.62974813 0.6374475000000001 0.8201197 1.0291188 1.070825 1.0505703000000002 0.93059661 0.71313129 0.68223114 0.73019617 0.6047155 0.65791259
-1.990933 -2.086291 -2.0731697000000002 -1.911572 -1.8444633999999998 -1.8266953000000001 -1.7047512999999999 -1.5924942 -1.4081611 -1.0672233 -0.73239867 -0.6140475999999999 -0.62365533 -0.30255211 0.11621277 0.055411688 0.066442751 0.42332142 0.45323058 0.30669245 0.35921726 0.36960693 0.38301222 0.47176348 0.46110431 0.37373316 0.29326044 0.28570498 0.33948809 0.36271362 0.38574687 0.37504944 0.32928201 0.36494342 0.36740252 0.35875166 0.52162501 0.62974813 0.6374475000000001 0.8201197 1.0291188 1.070825 1.0505703000000002 0.93059661 0.71313129 0.68223114 0.73019617 0.6047155 0.65791259 0.79018252
-2.086291 -2.0731697000000002 -1.911572 -1.8444633999999998 -1.8266953000000001 -1.7047512999999999 -1.5924942 -1.4081611 -1.0672233 -0.73239867 -0.6140475999999999 -0.62365533 -0.30255211 0.11621277 0.055411688 0.066442751 0.42332142 0.45323058 0.30669245 0.35921726 0.36960693 0.38301222 0.47176348 0.46110431 0.37373316 0.29326044 0.28570498 0.33948809 0.36271362 0.38574687 0.37504944 0.32928201 0.36494342 0.36740252 0.35875166 0.52162501 0.62974813 0.6374475000000001 0.8201197 1.0291188 1.070825 1.0505703000000002 0.93059661 0.71313129 0.68223114 0.73019617 0.6047155 0.65791259 0.79018252 0.59636625
-2.0731697000000002 -1.911572 -1.8444633999999998 -1.8266953000000001 -1.7047512999999999 -1.5924942 -1.4081611 -1.0672233 -0.73239867 -0.6140475999999999 -0.62365533 -0.30255211 0.11621277 0.055411688 0.066442751 0.42332142 0.45323058 0.30669245 0.35921726 0.36960693 0.38301222 0.47176348 0.46110431 0.37373316 0.29326044 0.28570498 0.33948809 0.36271362 0.38574687 0.37504944 0.32928201 0.36494342 0.36740252 0.35875166 0.52162501 0.62974813 0.6374475000000001 0.8201197 1.0291188 1.070825 1.0505703000000002 0.93059661 0.71313129 0.68223114 0.73019617 0.6047155 0.65791259 0.79018252 0.59636625 0.50330359
-1.911572 -1.8444633999999998 -1.8266953000000001 -1.7047512999999999 -1.5924942 -1.4081611 -1.0672233 -0.73239867 -0.6140475999999999 -0.62365533 -0.30255211 0.11621277 0.055411688 0.066442751 0.42332142 0.45323058 0.30669245 0.35921726 0.36960693 0.38301222 0.47176348 0.46110431 0.37373316 0.29326044 0.28570498 0.33948809 0.36271362 0.38574687 0.37504944 0.32928201 0.36494342 0.36740252 0.35875166 0.52162501 0.62974813 0.6374475000000001 0.8201197 1.0291188 1.070825 1.0505703000000002 0.93059661 0.71313129 0.68223114 0.73019617 0.6047155 0.65791259 0.79018252 0.59636625 0.50330359 0.5148594
-1.8444633999999998 -1.8266953000000001 -1.7047512999999999 -1.5924942 -1.4081611 -1.0672233 -0.73239867 -0.6140475999999999 -0.62365533 -0.30255211 0.11621277 0.055411688 0.066442751 0.42332142 0.45323058 0.30669245 0.35921726 0.36960693 0.38301222 0.47176348 0.46110431 0.37373316 0.29326044 0.28570498 0.33948809 0.36271362 0.38574687 0.37504944 0.32928201 0.36494342 0.36740252 0.35875166 0.52162501 0.62974813 0.6374475000000001 0.8201197 1.0291188 1.070825 1.0505703000000002 0.93059661 0.71313129 0.68223114 0.73019617 0.6047155 0.65791259 0.79018252 0.59636625 0.50330359 0.5148594 0.36250425
-1.8266953000000001 -1.7047512999999999 -1.5924942 -1.4081611 -1.0672233 -0.73239867 -0.6140475999999999 -0.62365533 -0.30255211 0.11621277 0.055411688 0.066442751 0.42332142 0.45323058 0.30669245 0.35921726 0.36960693 0.38301222 0.47176348 0.46110431 0.37373316 0.29326044 0.28570498 0.33948809 0.36271362 0.38574687 0.37504944 0.32928201 0.36494342 0.36740252 0.35875166 0.52162501 0.62974813 0.6374475000000001 0.8201197 1.0291188 1.070825 1.0505703000000002 0.93059661 0.71313129 0.68223114 0.73019617 0.6047155 0.65791259 0.79018252 0.59636625 0.50330359 0.5148594 0.36250425 0.41891152
-1.7047512999999999 -1.5924942 -1.4081611 -1.0672233 -0.73239867 -0.6140475999999999 -0.62365533 -0.30255211 0.11621277 0.055411688 0.066442751 0.42332142 0.45323058 0.30669245 0.35921726 0.36960693 0.38301222 0.47176348 0.46110431 0.37373316 0.29326044 0.28570498 0.33948809 0.36271362 0.38574687 0.37504944 0.32928201 0.36494342 0.36740252 0.35875166 0.52162501 0.62974813 0.6374475000000001 0.8201197 1.0291188 1.070825 1.0505703000000002 0.93059661 0.71313129 0.68223114 0.73019617 0.6047155 0.65791259 0.79018252 0.59636625 0.50330359 0.5148594 0.36250425 0.41891152 0.43683991
-1.5924942 -1.4081611 -1.0672233 -0.73239867 -0.6140475999999999 -0.62365533 -0.30255211 0.11621277 0.055411688 0.066442751 0.42332142 0.45323058 0.30669245 0.35921726 0.36960693 0.38301222 0.47176348 0.46110431 0.37373316 0.29326044 0.28570498 0.33948809 0.36271362 0.38574687 0.37504944 0.32928201 0.36494342 0.36740252 0.35875166 0.52162501 0.62974813 0.6374475000000001 0.8201197 1.0291188 1.070825 1.0505703000000002 0.93059661 0.71313129 0.68223114 0.73019617 0.6047155 0.65791259 0.79018252 0.59636625 0.50330359 0.5148594 0.36250425 0.41891152 0.43683991 0.23026572
-1.4081611 -1.0672233 -0.73239867 -0.6140475999999999 -0.62365533 -0.30255211 0.11621277 0.055411688 0.066442751 0.42332142 0.45323058 0.30669245 0.35921726 0.36960693 0.38301222 0.47176348 0.46110431 0.37373316 0.29326044 0.28570498 0.33948809 0.36271362 0.38574687 0.37504944 0.32928201 0.36494342 0.36740252 0.35875166 0.52162501 0.62974813 0.6374475000000001 0.8201197 1.0291188 1.070825 1.0505703000000002 0.93059661 0.71313129 0.68223114 0.73019617 0.6047155 0.65791259 0.79018252 0.59636625 0.50330359 0.5148594 0.36250425 0.41891152 0.43683991 0.23026572 0.30666737
-1.0672233 -0.73239867 -0.6140475999999999 -0.62365533 -0.30255211 0.11621277 0.055411688 0.066442751 0.42332142 0.45323058 0.30669245 0.35921726 0.36960693 0.38301222 0.47176348 0.46110431 0.37373316 0.29326044 0.28570498 0.33948809 0.36271362 0.38574687 0.37504944 0.32928201 0.36494342 0.36740252 0.35875166 0.52162501 0.62974813 0.6374475000000001 0.8201197 1.0291188 1.070825 1.0505703000000002 0.93059661 0.71313129 0.68223114 0.73019617 0.6047155 0.65791259 0.79018252 0.59636625 0.50330359 0.5148594 0.36250425 0.41891152 0.43683991 0.23026572 0.30666737 0.41880937
-0.73239867 -0.6140475999999999 -0.62365533 -0.30255211 0.11621277 0.055411688 0.066442751 0.42332142 0.45323058 0.30669245 0.35921726 0.36960693 0.38301222 0.47176348 0.46110431 0.37373316 0.29326044 0.28570498 0.33948809 0.36271362 0.38574687 0.37504944 0.32928201 0.36494342 0.36740252 0.35875166 0.52162501 0.62974813 0.6374475000000001 0.8201197 1.0291188 1.070825 1.0505703000000002 0.93059661 0.71313129 0.68223114 0.73019617 0.6047155 0.65791259 0.79018252 0.59636625 0.50330359 0.5148594 0.36250425 0.41891152 0.43683991 0.23026572 0.30666737 0.41880937 0.28307678
-0.6140475999999999 -0.62365533 -0.30255211 0.11621277 0.055411688 0.066442751 0.42332142 0.45323058 0.30669245 0.35921726 0.36960693 0.38301222 0.47176348 0.46110431 0.37373316 0.29326044 0.28570498 0.33948809 0.36271362 0.38574687 0.37504944 0.32928201 0.36494342 0.36740252 0.35875166 0.52162501 0.62974813 0.6374475000000001 0.8201197 1.0291188 1.070825 1.0505703000000002 0.93059661 0.71313129 0.68223114 0.73019617 0.6047155 0.65791259 0.79018252 0.59636625 0.50330359 0.5148594 0.36250425 0.41891152 0.43683991 0.23026572 0.30666737 0.41880937 0.28307678 0.28666866
-0.62365533 -0.30255211 0.11621277 0.055411688 0.066442751 0.42332142 0.45323058 0.30669245 0.35921726 0.36960693 0.38301222 0.47176348 0.46110431 0.37373316 0.29326044 0.28570498 0.33948809 0.36271362 0.38574687 0.37504944 0.32928201 0.36494342 0.36740252 0.35875166 0.52162501 0.62974813 0.6374475000000001 0.8201197 1.0291188 1.070825 1.0505703000000002 0.93059661 0.71313129 0.68223114 0.73019617 0.6047155 0.65791259 0.79018252 0.59636625 0.50330359 0.5148594 0.36250425 0.41891152 0.43683991 0.23026572 0.30666737 0.41880937 0.28307678 0.28666866 0.32964691
-0.30255211 0.11621277 0.055411688 0.066442751 0.42332142 0.45323058 0.30669245 0.35921726 0.36960693 0.38301222 0.47176348 0.46110431 0.37373316 0.29326044 0.28570498 0.33948809 0.36271362 0.38574687 0.37504944 0.32928201 0.36494342 0.36740252 0.35875166 0.52162501 0.62974813 0.6374475000000001 0.8201197 1.0291188 1.070825 1.0505703000000002 0.93059661 0.71313129 0.68223114 0.73019617 0.6047155 0.65791259 0.79018252 0.59636625 0.50330359 0.5148594 0.36250425 0.41891152 0.43683991 0.23026572 0.30666737 0.41880937 0.28307678 0.28666866 0.32964691 0.14763104
