0.65173918 1.2370341999999999 2.1094477000000005 1.4324433 0.78670067 -0.45945978 -0.36329857 -0.55752269 -1.1959349 -0.8249699 -0.78616871 -1.2286909 -1.3205729 -1.3830934 -1.3137133 -1.3088983 -1.4952363000000002 -1.6645151999999999 -1.6580473000000002 -1.8050654 -1.9127306 -2.3294546 -2.5095343 -2.4365433 -2.2522599999999997 -2.6018957 -1.7742064999999998 -1.6680736 -1.5599063 -0.66048299 -0.87372723 -0.34851131 -0.069974211 -0.15227939999999998 -0.10986013 0.32801368 0.21190219 -0.0074185574 0.38776298 0.14009821 0.21024603 0.32263201 0.44521874 0.38708037 0.47891035 0.62107045 0.57921611 0.69960986 0.91670757 0.69036064
1.2370341999999999 2.1094477000000005 1.4324433 0.78670067 -0.45945978 -0.36329857 -0.55752269 -1.1959349 -0.8249699 -0.78616871 -1.2286909 -1.3205729 -1.3830934 -1.3137133 -1.3088983 -1.4952363000000002 -1.6645151999999999 -1.6580473000000002 -1.8050654 -1.9127306 -2.3294546 -2.5095343 -2.4365433 -2.2522599999999997 -2.6018957 -1.7742064999999998 -1.6680736 -1.5599063 -0.66048299 -0.87372723 -0.34851131 -0.069974211 -0.15227939999999998 -0.10986013 0.32801368 0.21190219 -0.0074185574 0.38776298 0.14009821 0.21024603 0.32263201 0.44521874 0.38708037 0.47891035 0.62107045 0.57921611 0.69960986 0.91670757 0.69036064 0.78867598
2.1094477000000005 1.4324433 0.78670067 -0.45945978 -0.36329857 -0.55752269 -1.1959349 -0.8249699 -0.78616871 -1.2286909 -1.3205729 -1.3830934 -1.3137133 -1.3088983 -1.4952363000000002 -1.6645151999999999 -1.6580473000000002 -1.8050654 -1.9127306 -2.3294546 -2.5095343 -2.4365433 -2.2522599999999997 -2.6018957 -1.7742064999999998 -1.6680736 -1.5599063 -0.66048299 -0.87372723 -0.34851131 -0.069974211 -0.15227939999999998 -0.10986013 0.32801368 0.21190219 -0.0074185574 0.38776298 0.14009821 0.21024603 0.32263201 0.44521874 0.38708037 0.47891035 0.62107045 0.57921611 0.69960986 0.91670757 0.69036064 0.78867598 0.87630152
1.4324433 0.78670067 -0.45945978 -0.36329857 -0.55752269 -1.1959349 -0.8249699 -0.78616871 -1.2286909 -1.3205729 -1.3830934 -1.3137133 -1.3088983 -1.4952363000000002 -1.6645151999999999 -1.6580473000000002 -1.8050654 -1.9127306 -2.3294546 -2.5095343 -2.4365433 -2.2522599999999997 -2.6018957 -1.7742064999999998 -1.6680736 -1.5599063 -0.66048299 -0.87372723 -0.34851131 -0.069974211 -0.15227939999999998 -0.10986013 0.32801368 0.21190219 -0.0074185574 0.38776298 0.14009821 0.21024603 0.32263201 0.44521874 0.38708037 0.47891035 0.62107045 0.57921611 0.69960986 0.91670757 0.69036064 0.78867598 0.87630152 0.83114476
0.78670067 -0.45945978 -0.36329857 -0.55752269 -1.1959349 -0.8249699 -0.78616871 -1.2286909 -1.3205729 -1.3830934 -1.3137133 -1.3088983 -1.4952363000000002 -1.6645151999999999 -1.6580473000000002 -1.8050654 -1.9127306 -2.3294546 -2.5095343 -2.4365433 -2.2522599999999997 -2.6018957 -1.7742064999999998 -1.6680736 -1.5599063 -0.66048299 -0.87372723 -0.34851131 -0.069974211 -0.15227939999999998 -0.10986013 0.32801368 0.21190219 -0.0074185574 0.38776298 0.14009821 0.21024603 0.32263201 0.44521874 0.38708037 0.47891035 0.62107045 0.57921611 0.69960986 0.91670757 0.69036064 0.78867598 0.87630152 0.83114476 0.79840024
-0.45945978 -0.36329857 -0.55752269 -1.1959349 -0.8249699 -0.78616871 -1.2286909 -1.3205729 -1.3830934 -1.3137133 -1.3088983 -1.4952363000000002 -1.6645151999999999 -1.6580473000000002 -1.8050654 -1.9127306 -2.3294546 -2.5095343 -2.4365433 -2.2522599999999997 -2.6018957 -1.7742064999999998 -1.6680736 -1.5599063 -0.66048299 -0.87372723 -0.34851131 -0.069974211 -0.15227939999999998 -0.10986013 0.32801368 0.21190219 -0.0074185574 0.38776298 0.14009821 0.21024603 0.32263201 0.44521874 0.38708037 0.47891035 0.62107045 0.57921611 0.69960986 0.91670757 0.69036064 0.78867598 0.87630152 0.83114476 0.79840024 0.74892898
-0.36329857 -0.55752269 -1.1959349 -0.8249699 -0.78616871 -1.2286909 -1.3205729 -1.3830934 -1.3137133 -1.3088983 -1.4952363000000002 -1.6645151999999999 -1.6580473000000002 -1.8050654 -1.9127306 -2.3294546 -2.5095343 -2.4365433 -2.2522599999999997 -2.6018957 -1.7742064999999998 -1.6680736 -1.5599063 -0.66048299 -0.87372723 -0.34851131 -0.069974211 -0.15227939999999998 -0.10986013 0.32801368 0.21190219 -0.0074185574 0.38776298 0.14009821 0.21024603 0.32263201 0.44521874 0.38708037 0.47891035 0.62107045 0.57921611 0.69960986 0.91670757 0.69036064 0.78867598 0.87630152 0.83114476 0.79840024 0.74892898 0.55054866
-0.55752269 -1.1959349 -0.8249699 -0.78616871 -1.2286909 -1.3205729 -1.3830934 -1.3137133 -1.3088983 -1.4952363000000002 -1.6645151999999999 -1.6580473000000002 -1.8050654 -1.9127306 -2.3294546 -2.5095343 -2.4365433 -2.2522599999999997 -2.6018957 -1.7742064999999998 -1.6680736 -1.5599063 -0.66048299 -0.87372723 -0.34851131 -0.069974211 -0.15227939999999998 -0.10986013 0.32801368 0.21190219 -0.0074185574 0.38776298 0.14009821 0.21024603 0.32263201 0.44521874 0.38708037 0.47891035 0.62107045 0.57921611 0.69960986 0.91670757 0.69036064 0.78867598 0.87630152 0.83114476 0.79840024 0.74892898 0.55054866 0.56323602
-1.1959349 -0.8249699 -0.78616871 -1.2286909 -1.3205729 -1.3830934 -1.3137133 -1.3088983 -1.4952363000000002 -1.6645151999999999 -1.6580473000000002 -1.8050654 -1.9127306 -2.3294546 -2.5095343 -2.4365433 -2.2522599999999997 -2.6018957 -1.7742064999999998 -1.6680736 -1.5599063 -0.66048299 -0.87372723 -0.34851131 -0.069974211 -0.15227939999999998 -0.10986013 0.32801368 0.21190219 -0.0074185574 0.38776298 0.14009821 0.21024603 0.32263201 0.44521874 0.38708037 0.47891035 0.62107045 0.57921611 0.69960986 0.91670757 0.69036064 0.78867598 0.87630152 0.83114476 0.79840024 0.74892898 0.55054866 0.56323602 0.98123191
-0.8249699 -0.78616871 -1.2286909 -1.3205729 -1.3830934 -1.3137133 -1.3088983 -1.4952363000000002 -1.6645151999999999 -1.6580473000000002 -1.8050654 -1.9127306 -2.3294546 -2.5095343 -2.4365433 -2.2522599999999997 -2.6018957 -1.7742064999999998 -1.6680736 -1.5599063 -0.66048299 -0.87372723 -0.34851131 -0.069974211 -0.15227939999999998 -0.10986013 0.32801368 0.21190219 -0.0074185574 0.38776298 0.14009821 0.21024603 0.32263201 0.44521874 0.38708037 0.47891035 0.62107045 0.57921611 0.69960986 0.91670757 0.69036064 0.78867598 0.87630152 0.83114476 0.79840024 0.74892898 0.55054866 0.56323602 0.98123191 0.46065651
-0.78616871 -1.2286909 -1.3205729 -1.3830934 -1.3137133 -1.3088983 -1.4952363000000002 -1.6645151999999999 -1.6580473000000002 -1.8050654 -1.9127306 -2.3294546 -2.5095343 -2.4365433 -2.2522599999999997 -2.6018957 -1.7742064999999998 -1.6680736 -1.5599063 -0.66048299 -0.87372723 -0.34851131 -0.069974211 -0.15227939999999998 -0.10986013 0.32801368 0.21190219 -0.0074185574 0.38776298 0.14009821 0.21024603 0.32263201 0.44521874 0.38708037 0.47891035 0.62107045 0.57921611 0.69960986 0.91670757 0.69036064 0.78867598 0.87630152 0.83114476 0.79840024 0.74892898 0.55054866 0.56323602 0.98123191 0.46065651 0.6243964
-1.2286909 -1.3205729 -1.3830934 -1.3137133 -1.3088983 -1.4952363000000002 -1.6645151999999999 -1.6580473000000002 -1.8050654 -1.9127306 -2.3294546 -2.5095343 -2.4365433 -2.2522599999999997 -2.6018957 -1.7742064999999998 -1.6680736 -1.5599063 -0.66048299 -0.87372723 -0.34851131 -0.069974211 -0.15227939999999998 -0.10986013 0.32801368 0.21190219 -0.0074185574 0.38776298 0.14009821 0.21024603 0.32263201 0.44521874 0.38708037 0.47891035 0.62107045 0.57921611 0.69960986 0.91670757 0.69036064 0.78867598 0.87630152 0.83114476 0.79840024 0.74892898 0.55054866 0.56323602 0.98123191 0.46065651 0.6243964 0.62939021
-1.3205729 -1.3830934 -1.3137133 -1.3088983 -1.4952363000000002 -1.6645151999999999 -1.6580473000000002 -1.8050654 -1.9127306 -2.3294546 -2.5095343 -2.4365433 -2.2522599999999997 -2.6018957 -1.7742064999999998 -1.6680736 -1.5599063 -0.66048299 -0.87372723 -0.34851131 -0.069974211 -0.15227939999999998 -0.10986013 0.32801368 0.21190219 -0.0074185574 0.38776298 0.14009821 0.21024603 0.32263201 0.44521874 0.38708037 0.47891035 0.62107045 0.57921611 0.69960986 0.91670757 0.69036064 0.78867598 0.87630152 0.83114476 0.79840024 0.74892898 0.55054866 0.56323602 0.98123191 0.46065651 0.6243964 0.62939021 0.64997374
-1.3830934 -1.3137133 -1.3088983 -1.4952363000000002 -1.6645151999999999 -1.6580473000000002 -1.8050654 -1.9127306 -2.3294546 -2.5095343 -2.4365433 -2.2522599999999997 -2.6018957 -1.7742064999999998 -1.6680736 -1.5599063 -0.66048299 -0.87372723 -0.34851131 -0.069974211 -0.15227939999999998 -0.10986013 0.32801368 0.21190219 -0.0074185574 0.38776298 0.14009821 0.21024603 0.32263201 0.44521874 0.38708037 0.47891035 0.62107045 0.57921611 0.69960986 0.91670757 0.69036064 0.78867598 0.87630152 0.83114476 0.79840024 0.74892898 0.55054866 0.56323602 0.98123191 0.46065651 0.6243964 0.62939021 0.64997374 0.37188004
-1.3137133 -1.3088983 -1.4952363000000002 -1.6645151999999999 -1.6580473000000002 -1.8050654 -1.9127306 -2.3294546 -2.5095343 -2.4365433 -2.2522599999999997 -2.6018957 -1.7742064999999998 -1.6680736 -1.5599063 -0.66048299 -0.87372723 -0.34851131 -0.069974211 -0.15227939999999998 -0.10986013 0.32801368 0.21190219 -0.0074185574 0.38776298 0.14009821 0.21024603 0.32263201 0.44521874 0.38708037 0.47891035 0.62107045 0.57921611 0.69960986 0.91670757 0.69036064 0.78867598 0.87630152 0.83114476 0.79840024 0.74892898 0.55054866 0.56323602 0.98123191 0.46065651 0.6243964 0.62939021 0.64997374 0.37188004 0.69082008
-1.3088983 -1.4952363000000002 -1.6645151999999999 -1.6580473000000002 -1.8050654 -1.9127306 -2.3294546 -2.5095343 -2.4365433 -2.2522599999999997 -2.6018957 -1.7742064999999998 -1.6680736 -1.5599063 -0.66048299 -0.87372723 -0.34851131 -0.069974211 -0.15227939999999998 -0.10986013 0.32801368 0.21190219 -0.0074185574 0.38776298 0.14009821 0.21024603 0.32263201 0.44521874 0.38708037 0.47891035 0.62107045 0.57921611 0.69960986 0.91670757 0.69036064 0.78867598 0.87630152 0.83114476 0.79840024 0.74892898 0.55054866 0.56323602 0.98123191 0.46065651 0.6243964 0.62939021 0.64997374 0.37188004 0.69082008 0.50977472
-1.4952363000000002 -1.6645151999999999 -1.6580473000000002 -1.8050654 -1.9127306 -2.3294546 -2.5095343 -2.4365433 -2.2522599999999997 -2.6018957 -1.7742064999999998 -1.6680736 -1.5599063 -0.66048299 -0.87372723 -0.34851131 -0.069974211 -0.15227939999999998 -0.10986013 0.32801368 0.21190219 -0.0074185574 0.38776298 0.14009821 0.21024603 0.32263201 0.44521874 0.38708037 0.47891035 0.62107045 0.57921611 0.69960986 0.91670757 0.69036064 0.78867598 0.87630152 0.83114476 0.79840024 0.74892898 0.55054866 0.56323602 0.98123191 0.46065651 0.6243964 0.62939021 0.64997374 0.37188004 0.69082008 0.50977472 0.57865534
-1.6645151999999999 -1.6580473000000002 -1.8050654 -1.9127306 -2.3294546 -2.5095343 -2.4365433 -2.2522599999999997 -2.6018957 -1.7742064999999998 -1.6680736 -1.5599063 -0.66048299 -0.87372723 -0.34851131 -0.069974211 -0.15227939999999998 -0.10986013 0.32801368 0.21190219 -0.0074185574 0.38776298 0.14009821 0.21024603 0.32263201 0.44521874 0.38708037 0.47891035 0.62107045 0.57921611 0.69960986 0.91670757 0.69036064 0.78867598 0.87630152 0.83114476 0.79840024 0.74892898 0.55054866 0.56323602 0.98123191 0.46065651 0.6243964 0.62939021 0.64997374 0.37188004 0.69082008 0.50977472 0.57865534 0.44903641
-1.6580473000000002 -1.8050654 -1.9127306 -2.3294546 -2.5095343 -2.4365433 -2.2522599999999997 -2.6018957 -1.7742064999999998 -1.6680736 -1.5599063 -0.66048299 -0.87372723 -0.34851131 -0.069974211 -0.15227939999999998 -0.10986013 0.32801368 0.21190219 -0.0074185574 0.38776298 0.14009821 0.21024603 0.32263201 0.44521874 0.38708037 0.47891035 0.62107045 0.57921611 0.69960986 0.91670757 0.69036064 0.78867598 0.87630152 0.83114476 0.79840024 0.74892898 0.55054866 0.56323602 0.98123191 0.46065651 0.6243964 0.62939021 0.64997374 0.37188004 0.69082008 0.50977472 0.57865534 0.44903641 0.50170411
-1.8050654 -1.9127306 -2.3294546 -2.5095343 -2.4365433 -2.2522599999999997 -2.6018957 -1.7742064999999998 -1.6680736 -1.5599063 -0.66048299 -0.87372723 -0.34851131 -0.069974211 -0.15227939999999998 -0.10986013 0.32801368 0.21190219 -0.0074185574 0.38776298 0.14009821 0.21024603 0.32263201 0.44521874 0.38708037 0.47891035 0.62107045 0.57921611 0.69960986 0.91670757 0.69036064 0.78867598 0.87630152 0.83114476 0.79840024 0.74892898 0.55054866 0.56323602 0.98123191 0.46065651 0.6243964 0.62939021 0.64997374 0.37188004 0.69082008 0.50977472 0.57865534 0.44903641 0.50170411 0.55146457
-1.9127306 -2.3294546 -2.5095343 -2.4365433 -2.2522599999999997 -2.6018957 -1.7742064999999998 -1.6680736 -1.5599063 -0.66048299 -0.87372723 -0.34851131 -0.069974211 -0.15227939999999998 -0.10986013 0.32801368 0.21190219 -0.0074185574 0.38776298 0.14009821 0.21024603 0.32263201 0.44521874 0.38708037 0.47891035 0.62107045 0.57921611 0.69960986 0.91670757 0.69036064 0.78867598 0.87630152 0.83114476 0.79840024 0.74892898 0.55054866 0.56323602 0.98123191 0.46065651 0.6243964 0.62939021 0.64997374 0.37188004 0.69082008 0.50977472 0.57865534 0.44903641 0.50170411 0.55146457 0.5184779
-2.3294546 -2.5095343 -2.4365433 -2.2522599999999997 -2.6018957 -1.7742064999999998 -1.6680736 -1.5599063 -0.66048299 -0.87372723 -0.34851131 -0.069974211 -0.15227939999999998 -0.10986013 0.32801368 0.21190219 -0.0074185574 0.38776298 0.14009821 0.21024603 0.32263201 0.44521874 0.38708037 0.47891035 0.62107045 0.57921611 0.69960986 0.91670757 0.69036064 0.78867598 0.87630152 0.83114476 0.79840024 0.74892898 0.55054866 0.56323602 0.98123191 0.46065651 0.6243964 0.62939021 0.64997374 0.37188004 0.69082008 0.50977472 0.57865534 0.44903641 0.50170411 0.55146457 0.5184779 0.47135908
-2.5095343 -2.4365433 -2.2522599999999997 -2.6018957 -1.7742064999999998 -1.6680736 -1.5599063 -0.66048299 -0.87372723 -0.34851131 -0.069974211 -0.15227939999999998 -0.10986013 0.32801368 0.21190219 -0.0074185574 0.38776298 0.14009821 0.21024603 0.32263201 0.44521874 0.38708037 0.47891035 0.62107045 0.57921611 0.69960986 0.91670757 0.69036064 0.78867598 0.87630152 0.83114476 0.79840024 0.74892898 0.55054866 0.56323602 0.98123191 0.46065651 0.6243964 0.62939021 0.64997374 0.37188004 0.69082008 0.50977472 0.57865534 0.44903641 0.50170411 0.55146457 0.5184779 0.47135908 0.59085883
-2.4365433 -2.2522599999999997 -2.6018957 -1.7742064999999998 -1.6680736 -1.5599063 -0.66048299 -0.87372723 -0.34851131 -0.069974211 -0.15227939999999998 -0.10986013 0.32801368 0.21190219 -0.0074185574 0.38776298 0.14009821 0.21024603 0.32263201 0.44521874 0.38708037 0.47891035 0.62107045 0.57921611 0.69960986 0.91670757 0.69036064 0.78867598 0.87630152 0.83114476 0.79840024 0.74892898 0.55054866 0.56323602 0.98123191 0.46065651 0.6243964 0.62939021 0.64997374 0.37188004 0.69082008 0.50977472 0.57865534 0.44903641 0.50170411 0.55146457 0.5184779 0.47135908 0.59085883 0.52547599
-2.2522599999999997 -2.6018957 -1.7742064999999998 -1.6680736 -1.5599063 -0.66048299 -0.87372723 -0.34851131 -0.069974211 -0.15227939999999998 -0.10986013 0.32801368 0.21190219 -0.0074185574 0.38776298 0.14009821 0.21024603 0.32263201 0.44521874 0.38708037 0.47891035 0.62107045 0.57921611 0.69960986 0.91670757 0.69036064 0.78867598 0.87630152 0.83114476 0.79840024 0.74892898 0.55054866 0.56323602 0.98123191 0.46065651 0.6243964 0.62939021 0.64997374 0.37188004 0.69082008 0.50977472 0.57865534 0.44903641 0.50170411 0.55146457 0.5184779 0.47135908 0.59085883 0.52547599 0.5670984
-2.6018957 -1.7742064999999998 -1.6680736 -1.5599063 -0.66048299 -0.87372723 -0.34851131 -0.069974211 -0.15227939999999998 -0.10986013 0.32801368 0.21190219 -0.0074185574 0.38776298 0.14009821 0.21024603 0.32263201 0.44521874 0.38708037 0.47891035 0.62107045 0.57921611 0.69960986 0.91670757 0.69036064 0.78867598 0.87630152 0.83114476 0.79840024 0.74892898 0.55054866 0.56323602 0.98123191 0.46065651 0.6243964 0.62939021 0.64997374 0.37188004 0.69082008 0.50977472 0.57865534 0.44903641 0.50170411 0.55146457 0.5184779 0.47135908 0.59085883 0.52547599 0.5670984 0.60085031
-1.7742064999999998 -1.6680736 -1.5599063 -0.66048299 -0.87372723 -0.34851131 -0.069974211 -0.15227939999999998 -0.10986013 0.32801368 0.21190219 -0.0074185574 0.38776298 0.14009821 0.21024603 0.32263201 0.44521874 0.38708037 0.47891035 0.62107045 0.57921611 0.69960986 0.91670757 0.69036064 0.78867598 0.87630152 0.83114476 0.79840024 0.74892898 0.55054866 0.56323602 0.98123191 0.46065651 0.6243964 0.62939021 0.64997374 0.37188004 0.69082008 0.50977472 0.57865534 0.44903641 0.50170411 0.55146457 0.5184779 0.47135908 0.59085883 0.52547599 0.5670984 0.60085031 0.59996991
-1.6680736 -1.5599063 -0.66048299 -0.87372723 -0.34851131 -0.069974211 -0.15227939999999998 -0.10986013 0.32801368 0.21190219 -0.0074185574 0.38776298 0.14009821 0.21024603 0.32263201 0.44521874 0.38708037 0.47891035 0.62107045 0.57921611 0.69960986 0.91670757 0.69036064 0.78867598 0.87630152 0.83114476 0.79840024 0.74892898 0.55054866 0.56323602 0.98123191 0.46065651 0.6243964 0.62939021 0.64997374 0.37188004 0.69082008 0.50977472 0.57865534 0.44903641 0.50170411 0.55146457 0.5184779 0.47135908 0.59085883 0.52547599 0.5670984 0.60085031 0.59996991 0.37192774
-1.5599063 -0.66048299 -0.87372723 -0.34851131 -0.069974211 -0.15227939999999998 -0.10986013 0.32801368 0.21190219 -0.0074185574 0.38776298 0.14009821 0.21024603 0.32263201 0.44521874 0.38708037 0.47891035 0.62107045 0.57921611 0.69960986 0.91670757 0.69036064 0.78867598 0.87630152 0.83114476 0.79840024 0.74892898 0.55054866 0.56323602 0.98123191 0.46065651 0.6243964 0.62939021 0.64997374 0.37188004 0.69082008 0.50977472 0.57865534 0.44903641 0.50170411 0.55146457 0.5184779 0.47135908 0.59085883 0.52547599 0.5670984 0.60085031 0.59996991 0.37192774 0.77951338
-0.66048299 -0.87372723 -0.34851131 -0.069974211 -0.15227939999999998 -0.10986013 0.32801368 0.21190219 -0.0074185574 0.38776298 0.14009821 0.21024603 0.32263201 0.44521874 0.38708037 0.47891035 0.62107045 0.57921611 0.69960986 0.91670757 0.69036064 0.78867598 0.87630152 0.83114476 0.79840024 0.74892898 0.55054866 0.56323602 0.98123191 0.46065651 0.6243964 0.62939021 0.64997374 0.37188004 0.69082008 0.50977472 0.57865534 0.44903641 0.50170411 0.55146457 0.5184779 0.47135908 0.59085883 0.52547599 0.5670984 0.60085031 0.59996991 0.37192774 0.77951338 0.81321292
-0.87372723 -0.34851131 -0.069974211 -0.15227939999999998 -0.10986013 0.32801368 0.21190219 -0.0074185574 0.38776298 0.14009821 0.21024603 0.32263201 0.44521874 0.38708037 0.47891035 0.62107045 0.57921611 0.69960986 0.91670757 0.69036064 0.78867598 0.87630152 0.83114476 0.79840024 0.74892898 0.55054866 0.56323602 0.98123191 0.46065651 0.6243964 0.62939021 0.64997374 0.37188004 0.69082008 0.50977472 0.57865534 0.44903641 0.50170411 0.55146457 0.5184779 0.47135908 0.59085883 0.52547599 0.5670984 0.60085031 0.59996991 0.37192774 0.77951338 0.81321292 0.81717349
-0.34851131 -0.069974211 -0.15227939999999998 -0.10986013 0.32801368 0.21190219 -0.0074185574 0.38776298 0.14009821 0.21024603 0.32263201 0.44521874 0.38708037 0.47891035 0.62107045 0.57921611 0.69960986 0.91670757 0.69036064 0.78867598 0.87630152 0.83114476 0.79840024 0.74892898 0.55054866 0.56323602 0.98123191 0.46065651 0.6243964 0.62939021 0.64997374 0.37188004 0.69082008 0.50977472 0.57865534 0.44903641 0.50170411 0.55146457 0.5184779 0.47135908 0.59085883 0.52547599 0.5670984 0.60085031 0.59996991 0.37192774 0.77951338 0.81321292 0.81717349 0.85718509
-0.069974211 -0.15227939999999998 -0.10986013 0.32801368 0.21190219 -0.0074185574 0.38776298 0.14009821 0.21024603 0.32263201 0.44521874 0.38708037 0.47891035 0.62107045 0.57921611 0.69960986 0.91670757 0.69036064 0.78867598 0.87630152 0.83114476 0.79840024 0.74892898 0.55054866 0.56323602 0.98123191 0.46065651 0.6243964 0.62939021 0.64997374 0.37188004 0.69082008 0.50977472 0.57865534 0.44903641 0.50170411 0.55146457 0.5184779 0.47135908 0.59085883 0.52547599 0.5670984 0.60085031 0.59996991 0.37192774 0.77951338 0.81321292 0.81717349 0.85718509 0.57841371
-0.15227939999999998 -0.10986013 0.32801368 0.21190219 -0.0074185574 0.38776298 0.14009821 0.21024603 0.32263201 0.44521874 0.38708037 0.47891035 0.62107045 0.57921611 0.69960986 0.91670757 0.69036064 0.78867598 0.87630152 0.83114476 0.79840024 0.74892898 0.55054866 0.56323602 0.98123191 0.46065651 0.6243964 0.62939021 0.64997374 0.37188004 0.69082008 0.50977472 0.57865534 0.44903641 0.50170411 0.55146457 0.5184779 0.47135908 0.59085883 0.52547599 0.5670984 0.60085031 0.59996991 0.37192774 0.77951338 0.81321292 0.81717349 0.85718509 0.57841371 0.79580156
-0.10986013 0.32801368 0.21190219 -0.0074185574 0.38776298 0.14009821 0.21024603 0.32263201 0.44521874 0.38708037 0.47891035 0.62107045 0.57921611 0.69960986 0.91670757 0.69036064 0.78867598 0.87630152 0.83114476 0.79840024 0.74892898 0.55054866 0.56323602 0.98123191 0.46065651 0.6243964 0.62939021 0.64997374 0.37188004 0.69082008 0.50977472 0.57865534 0.44903641 0.50170411 0.55146457 0.5184779 0.47135908 0.59085883 0.52547599 0.5670984 0.60085031 0.59996991 0.37192774 0.77951338 0.81321292 0.81717349 0.85718509 0.57841371 0.79580156 0.39816153
0.32801368 0.21190219 -0.0074185574 0.38776298 0.14009821 0.21024603 0.32263201 0.44521874 0.38708037 0.47891035 0.62107045 0.57921611 0.69960986 0.91670757 0.69036064 0.78867598 0.87630152 0.83114476 0.79840024 0.74892898 0.55054866 0.56323602 0.98123191 0.46065651 0.6243964 0.62939021 0.64997374 0.37188004 0.69082008 0.50977472 0.57865534 0.44903641 0.50170411 0.55146457 0.5184779 0.47135908 0.59085883 0.52547599 0.5670984 0.60085031 0.59996991 0.37192774 0.77951338 0.81321292 0.81717349 0.85718509 0.57841371 0.79580156 0.39816153 0.46657552
0.21190219 -0.0074185574 0.38776298 0.14009821 0.21024603 0.32263201 0.44521874 0.38708037 0.47891035 0.62107045 0.57921611 0.69960986 0.91670757 0.69036064 0.78867598 0.87630152 0.83114476 0.79840024 0.74892898 0.55054866 0.56323602 0.98123191 0.46065651 0.6243964 0.62939021 0.64997374 0.37188004 0.69082008 0.50977472 0.57865534 0.44903641 0.50170411 0.55146457 0.5184779 0.47135908 0.59085883 0.52547599 0.5670984 0.60085031 0.59996991 0.37192774 0.77951338 0.81321292 0.81717349 0.85718509 0.57841371 0.79580156 0.39816153 0.46657552 0.51741161
-0.0074185574 0.38776298 0.14009821 0.21024603 0.32263201 0.44521874 0.38708037 0.47891035 0.62107045 0.57921611 0.69960986 0.91670757 0.69036064 0.78867598 0.87630152 0.83114476 0.79840024 0.74892898 0.55054866 0.56323602 0.98123191 0.46065651 0.6243964 0.62939021 0.64997374 0.37188004 0.69082008 0.50977472 0.57865534 0.44903641 0.50170411 0.55146457 0.5184779 0.47135908 0.59085883 0.52547599 0.5670984 0.60085031 0.59996991 0.37192774 0.77951338 0.81321292 0.81717349 0.85718509 0.57841371 0.79580156 0.39816153 0.46657552 0.51741161 0.35107124
0.38776298 0.14009821 0.21024603 0.32263201 0.44521874 0.38708037 0.47891035 0.62107045 0.57921611 0.69960986 0.91670757 0.69036064 0.78867598 0.87630152 0.83114476 0.79840024 0.74892898 0.55054866 0.56323602 0.98123191 0.46065651 0.6243964 0.62939021 0.64997374 0.37188004 0.69082008 0.50977472 0.57865534 0.44903641 0.50170411 0.55146457 0.5184779 0.47135908 0.59085883 0.52547599 0.5670984 0.60085031 0.59996991 0.37192774 0.77951338 0.81321292 0.81717349 0.85718509 0.57841371 0.79580156 0.39816153 0.46657552 0.51741161 0.35107124 0.33964832
0.14009821 0.21024603 0.32263201 0.44521874 0.38708037 0.47891035 0.62107045 0.57921611 0.69960986 0.91670757 0.69036064 0.78867598 0.87630152 0.83114476 0.79840024 0.74892898 0.55054866 0.56323602 0.98123191 0.46065651 0.6243964 0.62939021 0.64997374 0.37188004 0.69082008 0.50977472 0.57865534 0.44903641 0.50170411 0.55146457 0.5184779 0.47135908 0.59085883 0.52547599 0.5670984 0.60085031 0.59996991 0.37192774 0.77951338 0.81321292 0.81717349 0.85718509 0.57841371 0.79580156 0.39816153 0.46657552 0.51741161 0.35107124 0.33964832 0.27754609999999996
0.21024603 0.32263201 0.44521874 0.38708037 0.47891035 0.62107045 0.57921611 0.69960986 0.91670757 0.69036064 0.78867598 0.87630152 0.83114476 0.79840024 0.74892898 0.55054866 0.56323602 0.98123191 0.46065651 0.6243964 0.62939021 0.64997374 0.37188004 0.69082008 0.50977472 0.57865534 0.44903641 0.50170411 0.55146457 0.5184779 0.47135908 0.59085883 0.52547599 0.5670984 0.60085031 0.59996991 0.37192774 0.77951338 0.81321292 0.81717349 0.85718509 0.57841371 0.79580156 0.39816153 0.46657552 0.51741161 0.35107124 0.33964832 0.27754609999999996 0.66992836
0.32263201 0.44521874 0.38708037 0.47891035 0.62107045 0.57921611 0.69960986 0.91670757 0.69036064 0.78867598 0.87630152 0.83114476 0.79840024 0.74892898 0.55054866 0.56323602 0.98123191 0.46065651 0.6243964 0.62939021 0.64997374 0.37188004 0.69082008 0.50977472 0.57865534 0.44903641 0.50170411 0.55146457 0.5184779 0.47135908 0.59085883 0.52547599 0.5670984 0.60085031 0.59996991 0.37192774 0.77951338 0.81321292 0.81717349 0.85718509 0.57841371 0.79580156 0.39816153 0.46657552 0.51741161 0.35107124 0.33964832 0.27754609999999996 0.66992836 0.39167078
0.44521874 0.38708037 0.47891035 0.62107045 0.57921611 0.69960986 0.91670757 0.69036064 0.78867598 0.87630152 0.83114476 0.79840024 0.74892898 0.55054866 0.56323602 0.98123191 0.46065651 0.6243964 0.62939021 0.64997374 0.37188004 0.69082008 0.50977472 0.57865534 0.44903641 0.50170411 0.55146457 0.5184779 0.47135908 0.59085883 0.52547599 0.5670984 0.60085031 0.59996991 0.37192774 0.77951338 0.81321292 0.81717349 0.85718509 0.57841371 0.79580156 0.39816153 0.46657552 0.51741161 0.35107124 0.33964832 0.27754609999999996 0.66992836 0.39167078 0.50667614
0.38708037 0.47891035 0.62107045 0.57921611 0.69960986 0.91670757 0.69036064 0.78867598 0.87630152 0.83114476 0.79840024 0.74892898 0.55054866 0.56323602 0.98123191 0.46065651 0.6243964 0.62939021 0.64997374 0.37188004 0.69082008 0.50977472 0.57865534 0.44903641 0.50170411 0.55146457 0.5184779 0.47135908 0.59085883 0.52547599 0.5670984 0.60085031 0.59996991 0.37192774 0.77951338 0.81321292 0.81717349 0.85718509 0.57841371 0.79580156 0.39816153 0.46657552 0.51741161 0.35107124 0.33964832 0.27754609999999996 0.66992836 0.39167078 0.50667614 -0.10257616
0.47891035 0.62107045 0.57921611 0.69960986 0.91670757 0.69036064 0.78867598 0.87630152 0.83114476 0.79840024 0.74892898 0.55054866 0.56323602 0.98123191 0.46065651 0.6243964 0.62939021 0.64997374 0.37188004 0.69082008 0.50977472 0.57865534 0.44903641 0.50170411 0.55146457 0.5184779 0.47135908 0.59085883 0.52547599 0.5670984 0.60085031 0.59996991 0.37192774 0.77951338 0.81321292 0.81717349 0.85718509 0.57841371 0.79580156 0.39816153 0.46657552 0.51741161 0.35107124 0.33964832 0.27754609999999996 0.66992836 0.39167078 0.50667614 -0.10257616 0.29257261
0.62107045 0.57921611 0.69960986 0.91670757 0.69036064 0.78867598 0.87630152 0.83114476 0.79840024 0.74892898 0.55054866 0.56323602 0.98123191 0.46065651 0.6243964 0.62939021 0.64997374 0.37188004 0.69082008 0.50977472 0.57865534 0.44903641 0.50170411 0.55146457 0.5184779 0.47135908 0.59085883 0.52547599 0.5670984 0.60085031 0.59996991 0.37192774 0.77951338 0.81321292 0.81717349 0.85718509 0.57841371 0.79580156 0.39816153 0.46657552 0.51741161 0.35107124 0.33964832 0.27754609999999996 0.66992836 0.39167078 0.50667614 -0.10257616 0.29257261 0.45394247
0.57921611 0.69960986 0.91670757 0.69036064 0.78867598 0.87630152 0.83114476 0.79840024 0.74892898 0.55054866 0.56323602 0.98123191 0.46065651 0.6243964 0.62939021 0.64997374 0.37188004 0.69082008 0.50977472 0.57865534 0.44903641 0.50170411 0.55146457 0.5184779 0.47135908 0.59085883 0.52547599 0.5670984 0.60085031 0.59996991 0.37192774 0.77951338 0.81321292 0.81717349 0.85718509 0.57841371 0.79580156 0.39816153 0.46657552 0.51741161 0.35107124 0.33964832 0.27754609999999996 0.66992836 0.39167078 0.50667614 -0.10257616 0.29257261 0.45394247 0.38968526
