0.5358111999999999 0.6007661999999999 2.115888 3.3480717 2.0451474999999997 1.4415876 0.10484063 -0.09357845199999999 1.0806246000000002 0.99424594 0.99555338 0.87982356 0.72863849 -0.35932679 -0.86489438 -0.70354973 -0.89332244 -0.99962492 -1.0895386999999999 -1.0714517 -1.0800591999999998 -1.3338561000000002 -1.3746308 -1.4982365 -1.510173 -1.5826767 -1.8217105 -1.6917148000000002 -1.8294197 -1.8667598 -1.9627095 -1.9313763 -1.7372130000000001 -1.8744234 -1.6583345 -1.206337 -0.98843838 -0.67382704 -0.31351342 0.048131147 0.36884819 0.56313559 0.71850792 0.90008507 1.047931 1.0429636 0.89953366 1.0279334 1.026368 0.91264163
0.6007661999999999 2.115888 3.3480717 2.0451474999999997 1.4415876 0.10484063 -0.09357845199999999 1.0806246000000002 0.99424594 0.99555338 0.87982356 0.72863849 -0.35932679 -0.86489438 -0.70354973 -0.89332244 -0.99962492 -1.0895386999999999 -1.0714517 -1.0800591999999998 -1.3338561000000002 -1.3746308 -1.4982365 -1.510173 -1.5826767 -1.8217105 -1.6917148000000002 -1.8294197 -1.8667598 -1.9627095 -1.9313763 -1.7372130000000001 -1.8744234 -1.6583345 -1.206337 -0.98843838 -0.67382704 -0.31351342 0.048131147 0.36884819 0.56313559 0.71850792 0.90008507 1.047931 1.0429636 0.89953366 1.0279334 1.026368 0.91264163 0.6238852
2.115888 3.3480717 2.0451474999999997 1.4415876 0.10484063 -0.09357845199999999 1.0806246000000002 0.99424594 0.99555338 0.87982356 0.72863849 -0.35932679 -0.86489438 -0.70354973 -0.89332244 -0.99962492 -1.0895386999999999 -1.0714517 -1.0800591999999998 -1.3338561000000002 -1.3746308 -1.4982365 -1.510173 -1.5826767 -1.8217105 -1.6917148000000002 -1.8294197 -1.8667598 -1.9627095 -1.9313763 -1.7372130000000001 -1.8744234 -1.6583345 -1.206337 -0.98843838 -0.67382704 -0.31351342 0.048131147 0.36884819 0.56313559 0.71850792 0.90008507 1.047931 1.0429636 0.89953366 1.0279334 1.026368 0.91264163 0.6238852 0.77580761
3.3480717 2.0451474999999997 1.4415876 0.10484063 -0.09357845199999999 1.0806246000000002 0.99424594 0.99555338 0.87982356 0.72863849 -0.35932679 -0.86489438 -0.70354973 -0.89332244 -0.99962492 -1.0895386999999999 -1.0714517 -1.0800591999999998 -1.3338561000000002 -1.3746308 -1.4982365 -1.510173 -1.5826767 -1.8217105 -1.6917148000000002 -1.8294197 -1.8667598 -1.9627095 -1.9313763 -1.7372130000000001 -1.8744234 -1.6583345 -1.206337 -0.98843838 -0.67382704 -0.31351342 0.048131147 0.36884819 0.56313559 0.71850792 0.90008507 1.047931 1.0429636 0.89953366 1.0279334 1.026368 0.91264163 0.6238852 0.77580761 0.9005531999999999
2.0451474999999997 1.4415876 0.10484063 -0.09357845199999999 1.0806246000000002 0.99424594 0.99555338 0.87982356 0.72863849 -0.35932679 -0.86489438 -0.70354973 -0.89332244 -0.99962492 -1.0895386999999999 -1.0714517 -1.0800591999999998 -1.3338561000000002 -1.3746308 -1.4982365 -1.510173 -1.5826767 -1.8217105 -1.6917148000000002 -1.8294197 -1.8667598 -1.9627095 -1.9313763 -1.7372130000000001 -1.8744234 -1.6583345 -1.206337 -0.98843838 -0.67382704 -0.31351342 0.048131147 0.36884819 0.56313559 0.71850792 0.90008507 1.047931 1.0429636 0.89953366 1.0279334 1.026368 0.91264163 0.6238852 0.77580761 0.9005531999999999 0.51607342
1.4415876 0.10484063 -0.09357845199999999 1.0806246000000002 0.99424594 0.99555338 0.87982356 0.72863849 -0.35932679 -0.86489438 -0.70354973 -0.89332244 -0.99962492 -1.0895386999999999 -1.0714517 -1.0800591999999998 -1.3338561000000002 -1.3746308 -1.4982365 -1.510173 -1.5826767 -1.8217105 -1.6917148000000002 -1.8294197 -1.8667598 -1.9627095 -1.9313763 -1.7372130000000001 -1.8744234 -1.6583345 -1.206337 -0.98843838 -0.67382704 -0.31351342 0.048131147 0.36884819 0.56313559 0.71850792 0.90008507 1.047931 1.0429636 0.89953366 1.0279334 1.026368 0.91264163 0.6238852 0.77580761 0.9005531999999999 0.51607342 0.84117045
0.10484063 -0.09357845199999999 1.0806246000000002 0.99424594 0.99555338 0.87982356 0.72863849 -0.35932679 -0.86489438 -0.70354973 -0.89332244 -0.99962492 -1.0895386999999999 -1.0714517 -1.0800591999999998 -1.3338561000000002 -1.3746308 -1.4982365 -1.510173 -1.5826767 -1.8217105 -1.6917148000000002 -1.8294197 -1.8667598 -1.9627095 -1.9313763 -1.7372130000000001 -1.8744234 -1.6583345 -1.206337 -0.98843838 -0.67382704 -0.31351342 0.048131147 0.36884819 0.56313559 0.71850792 0.90008507 1.047931 1.0429636 0.89953366 1.0279334 1.026368 0.91264163 0.6238852 0.77580761 0.9005531999999999 0.51607342 0.84117045 0.57778281
-0.09357845199999999 1.0806246000000002 0.99424594 0.99555338 0.87982356 0.72863849 -0.35932679 -0.86489438 -0.70354973 -0.89332244 -0.99962492 -1.0895386999999999 -1.0714517 -1.0800591999999998 -1.3338561000000002 -1.3746308 -1.4982365 -1.510173 -1.5826767 -1.8217105 -1.6917148000000002 -1.8294197 -1.8667598 -1.9627095 -1.9313763 -1.7372130000000001 -1.8744234 -1.6583345 -1.206337 -0.98843838 -0.67382704 -0.31351342 0.048131147 0.36884819 0.56313559 0.71850792 0.90008507 1.047931 1.0429636 0.89953366 1.0279334 1.026368 0.91264163 0.6238852 0.77580761 0.9005531999999999 0.51607342 0.84117045 0.57778281 0.53402255
1.0806246000000002 0.99424594 0.99555338 0.87982356 0.72863849 -0.35932679 -0.86489438 -0.70354973 -0.89332244 -0.99962492 -1.0895386999999999 -1.0714517 -1.0800591999999998 -1.3338561000000002 -1.3746308 -1.4982365 -1.510173 -1.5826767 -1.8217105 -1.6917148000000002 -1.8294197 -1.8667598 -1.9627095 -1.9313763 -1.7372130000000001 -1.8744234 -1.6583345 -1.206337 -0.98843838 -0.67382704 -0.31351342 0.048131147 0.36884819 0.56313559 0.71850792 0.90008507 1.047931 1.0429636 0.89953366 1.0279334 1.026368 0.91264163 0.6238852 0.77580761 0.9005531999999999 0.51607342 0.84117045 0.57778281 0.53402255 0.80115669
0.99424594 0.99555338 0.87982356 0.72863849 -0.35932679 -0.86489438 -0.70354973 -0.89332244 -0.99962492 -1.0895386999999999 -1.0714517 -1.0800591999999998 -1.3338561000000002 -1.3746308 -1.4982365 -1.510173 -1.5826767 -1.8217105 -1.6917148000000002 -1.8294197 -1.8667598 -1.9627095 -1.9313763 -1.7372130000000001 -1.8744234 -1.6583345 -1.206337 -0.98843838 -0.67382704 -0.31351342 0.048131147 0.36884819 0.56313559 0.71850792 0.90008507 1.047931 1.0429636 0.89953366 1.0279334 1.026368 0.91264163 0.6238852 0.77580761 0.9005531999999999 0.51607342 0.84117045 0.57778281 0.53402255 0.80115669 0.68692175
0.99555338 0.87982356 0.72863849 -0.35932679 -0.86489438 -0.70354973 -0.89332244 -0.99962492 -1.0895386999999999 -1.0714517 -1.0800591999999998 -1.3338561000000002 -1.3746308 -1.4982365 -1.510173 -1.5826767 -1.8217105 -1.6917148000000002 -1.8294197 -1.8667598 -1.9627095 -1.9313763 -1.7372130000000001 -1.8744234 -1.6583345 -1.206337 -0.98843838 -0.67382704 -0.31351342 0.048131147 0.36884819 0.56313559 0.71850792 0.90008507 1.047931 1.0429636 0.89953366 1.0279334 1.026368 0.91264163 0.6238852 0.77580761 0.9005531999999999 0.51607342 0.84117045 0.57778281 0.53402255 0.80115669 0.68692175 0.58087065
0.87982356 0.72863849 -0.35932679 -0.86489438 -0.70354973 -0.89332244 -0.99962492 -1.0895386999999999 -1.0714517 -1.0800591999999998 -1.3338561000000002 -1.3746308 -1.4982365 -1.510173 -1.5826767 -1.8217105 -1.6917148000000002 -1.8294197 -1.8667598 -1.9627095 -1.9313763 -1.7372130000000001 -1.8744234 -1.6583345 -1.206337 -0.98843838 -0.67382704 -0.31351342 0.048131147 0.36884819 0.56313559 0.71850792 0.90008507 1.047931 1.0429636 0.89953366 1.0279334 1.026368 0.91264163 0.6238852 0.77580761 0.9005531999999999 0.51607342 0.84117045 0.57778281 0.53402255 0.80115669 0.68692175 0.58087065 0.49762567
0.72863849 -0.35932679 -0.86489438 -0.70354973 -0.89332244 -0.99962492 -1.0895386999999999 -1.0714517 -1.0800591999999998 -1.3338561000000002 -1.3746308 -1.4982365 -1.510173 -1.5826767 -1.8217105 -1.6917148000000002 -1.8294197 -1.8667598 -1.9627095 -1.9313763 -1.7372130000000001 -1.8744234 -1.6583345 -1.206337 -0.98843838 -0.67382704 -0.31351342 0.048131147 0.36884819 0.56313559 0.71850792 0.90008507 1.047931 1.0429636 0.89953366 1.0279334 1.026368 0.91264163 0.6238852 0.77580761 0.9005531999999999 0.51607342 0.84117045 0.57778281 0.53402255 0.80115669 0.68692175 0.58087065 0.49762567 0.45019918
-0.35932679 -0.86489438 -0.70354973 -0.89332244 -0.99962492 -1.0895386999999999 -1.0714517 -1.0800591999999998 -1.3338561000000002 -1.3746308 -1.4982365 -1.510173 -1.5826767 -1.8217105 -1.6917148000000002 -1.8294197 -1.8667598 -1.9627095 -1.9313763 -1.7372130000000001 -1.8744234 -1.6583345 -1.206337 -0.98843838 -0.67382704 -0.31351342 0.048131147 0.36884819 0.56313559 0.71850792 0.90008507 1.047931 1.0429636 0.89953366 1.0279334 1.026368 0.91264163 0.6238852 0.77580761 0.9005531999999999 0.51607342 0.84117045 0.57778281 0.53402255 0.80115669 0.68692175 0.58087065 0.49762567 0.45019918 0.52066011
-0.86489438 -0.70354973 -0.89332244 -0.99962492 -1.0895386999999999 -1.0714517 -1.0800591999999998 -1.3338561000000002 -1.3746308 -1.4982365 -1.510173 -1.5826767 -1.8217105 -1.6917148000000002 -1.8294197 -1.8667598 -1.9627095 -1.9313763 -1.7372130000000001 -1.8744234 -1.6583345 -1.206337 -0.98843838 -0.67382704 -0.31351342 0.048131147 0.36884819 0.56313559 0.71850792 0.90008507 1.047931 1.0429636 0.89953366 1.0279334 1.026368 0.91264163 0.6238852 0.77580761 0.9005531999999999 0.51607342 0.84117045 0.57778281 0.53402255 0.80115669 0.68692175 0.58087065 0.49762567 0.45019918 0.52066011 0.45495261
-0.70354973 -0.89332244 -0.99962492 -1.0895386999999999 -1.0714517 -1.0800591999999998 -1.3338561000000002 -1.3746308 -1.4982365 -1.510173 -1.5826767 -1.8217105 -1.6917148000000002 -1.8294197 -1.8667598 -1.9627095 -1.9313763 -1.7372130000000001 -1.8744234 -1.6583345 -1.206337 -0.98843838 -0.67382704 -0.31351342 0.048131147 0.36884819 0.56313559 0.71850792 0.90008507 1.047931 1.0429636 0.89953366 1.0279334 1.026368 0.91264163 0.6238852 0.77580761 0.9005531999999999 0.51607342 0.84117045 0.57778281 0.53402255 0.80115669 0.68692175 0.58087065 0.49762567 0.45019918 0.52066011 0.45495261 0.3871647
-0.89332244 -0.99962492 -1.0895386999999999 -1.0714517 -1.0800591999999998 -1.3338561000000002 -1.3746308 -1.4982365 -1.510173 -1.5826767 -1.8217105 -1.6917148000000002 -1.8294197 -1.8667598 -1.9627095 -1.9313763 -1.7372130000000001 -1.8744234 -1.6583345 -1.206337 -0.98843838 -0.67382704 -0.31351342 0.048131147 0.36884819 0.56313559 0.71850792 0.90008507 1.047931 1.0429636 0.89953366 1.0279334 1.026368 0.91264163 0.6238852 0.77580761 0.9005531999999999 0.51607342 0.84117045 0.57778281 0.53402255 0.80115669 0.68692175 0.58087065 0.49762567 0.45019918 0.52066011 0.45495261 0.3871647 0.3048046
-0.99962492 -1.0895386999999999 -1.0714517 -1.0800591999999998 -1.3338561000000002 -1.3746308 -1.4982365 -1.510173 -1.5826767 -1.8217105 -1.6917148000000002 -1.8294197 -1.8667598 -1.9627095 -1.9313763 -1.7372130000000001 -1.8744234 -1.6583345 -1.206337 -0.98843838 -0.67382704 -0.31351342 0.048131147 0.36884819 0.56313559 0.71850792 0.90008507 1.047931 1.0429636 0.89953366 1.0279334 1.026368 0.91264163 0.6238852 0.77580761 0.9005531999999999 0.51607342 0.84117045 0.57778281 0.53402255 0.80115669 0.68692175 0.58087065 0.49762567 0.45019918 0.52066011 0.45495261 0.3871647 0.3048046 0.21445674
-1.0895386999999999 -1.0714517 -1.0800591999999998 -1.3338561000000002 -1.3746308 -1.4982365 -1.510173 -1.5826767 -1.8217105 -1.6917148000000002 -1.8294197 -1.8667598 -1.9627095 -1.9313763 -1.7372130000000001 -1.8744234 -1.6583345 -1.206337 -0.98843838 -0.67382704 -0.31351342 0.048131147 0.36884819 0.56313559 0.71850792 0.90008507 1.047931 1.0429636 0.89953366 1.0279334 1.026368 0.91264163 0.6238852 0.77580761 0.9005531999999999 0.51607342 0.84117045 0.57778281 0.53402255 0.80115669 0.68692175 0.58087065 0.49762567 0.45019918 0.52066011 0.45495261 0.3871647 0.3048046 0.21445674 0.20228491
-1.0714517 -1.0800591999999998 -1.3338561000000002 -1.3746308 -1.4982365 -1.510173 -1.5826767 -1.8217105 -1.6917148000000002 -1.8294197 -1.8667598 -1.9627095 -1.9313763 -1.7372130000000001 -1.8744234 -1.6583345 -1.206337 -0.98843838 -0.67382704 -0.31351342 0.048131147 0.36884819 0.56313559 0.71850792 0.90008507 1.047931 1.0429636 0.89953366 1.0279334 1.026368 0.91264163 0.6238852 0.77580761 0.9005531999999999 0.51607342 0.84117045 0.57778281 0.53402255 0.80115669 0.68692175 0.58087065 0.49762567 0.45019918 0.52066011 0.45495261 0.3871647 0.3048046 0.21445674 0.20228491 0.24764394
-1.0800591999999998 -1.3338561000000002 -1.3746308 -1.4982365 -1.510173 -1.5826767 -1.8217105 -1.6917148000000002 -1.8294197 -1.8667598 -1.9627095 -1.9313763 -1.7372130000000001 -1.8744234 -1.6583345 -1.206337 -0.98843838 -0.67382704 -0.31351342 0.048131147 0.36884819 0.56313559 0.71850792 0.90008507 1.047931 1.0429636 0.89953366 1.0279334 1.026368 0.91264163 0.6238852 0.77580761 0.9005531999999999 0.51607342 0.84117045 0.57778281 0.53402255 0.80115669 0.68692175 0.58087065 0.49762567 0.45019918 0.52066011 0.45495261 0.3871647 0.3048046 0.21445674 0.20228491 0.24764394 0.22296468
-1.3338561000000002 -1.3746308 -1.4982365 -1.510173 -1.5826767 -1.8217105 -1.6917148000000002 -1.8294197 -1.8667598 -1.9627095 -1.9313763 -1.7372130000000001 -1.8744234 -1.6583345 -1.206337 -0.98843838 -0.67382704 -0.31351342 0.048131147 0.36884819 0.56313559 0.71850792 0.90008507 1.047931 1.0429636 0.89953366 1.0279334 1.026368 0.91264163 0.6238852 0.77580761 0.9005531999999999 0.51607342 0.84117045 0.57778281 0.53402255 0.80115669 0.68692175 0.58087065 0.49762567 0.45019918 0.52066011 0.45495261 0.3871647 0.3048046 0.21445674 0.20228491 0.24764394 0.22296468 -0.040042392999999996
-1.3746308 -1.4982365 -1.510173 -1.5826767 -1.8217105 -1.6917148000000002 -1.8294197 -1.8667598 -1.9627095 -1.9313763 -1.7372130000000001 -1.8744234 -1.6583345 -1.206337 -0.98843838 -0.67382704 -0.31351342 0.048131147 0.36884819 0.56313559 0.71850792 0.90008507 1.047931 1.0429636 0.89953366 1.0279334 1.026368 0.91264163 0.6238852 0.77580761 0.9005531999999999 0.51607342 0.84117045 0.57778281 0.53402255 0.80115669 0.68692175 0.58087065 0.49762567 0.45019918 0.52066011 0.45495261 0.3871647 0.3048046 0.21445674 0.20228491 0.24764394 0.22296468 -0.040042392999999996 0.21030657
-1.4982365 -1.510173 -1.5826767 -1.8217105 -1.6917148000000002 -1.8294197 -1.8667598 -1.9627095 -1.9313763 -1.7372130000000001 -1.8744234 -1.6583345 -1.206337 -0.98843838 -0.67382704 -0.31351342 0.048131147 0.36884819 0.56313559 0.71850792 0.90008507 1.047931 1.0429636 0.89953366 1.0279334 1.026368 0.91264163 0.6238852 0.77580761 0.9005531999999999 0.51607342 0.84117045 0.57778281 0.53402255 0.80115669 0.68692175 0.58087065 0.49762567 0.45019918 0.52066011 0.45495261 0.3871647 0.3048046 0.21445674 0.20228491 0.24764394 0.22296468 -0.040042392999999996 0.21030657 0.10010929
-1.510173 -1.5826767 -1.8217105 -1.6917148000000002 -1.8294197 -1.8667598 -1.9627095 -1.9313763 -1.7372130000000001 -1.8744234 -1.6583345 -1.206337 -0.98843838 -0.67382704 -0.31351342 0.048131147 0.36884819 0.56313559 0.71850792 0.90008507 1.047931 1.0429636 0.89953366 1.0279334 1.026368 0.91264163 0.6238852 0.77580761 0.9005531999999999 0.51607342 0.84117045 0.57778281 0.53402255 0.80115669 0.68692175 0.58087065 0.49762567 0.45019918 0.52066011 0.45495261 0.3871647 0.3048046 0.21445674 0.20228491 0.24764394 0.22296468 -0.040042392999999996 0.21030657 0.10010929 0.51042812
-1.5826767 -1.8217105 -1.6917148000000002 -1.8294197 -1.8667598 -1.9627095 -1.9313763 -1.7372130000000001 -1.8744234 -1.6583345 -1.206337 -0.98843838 -0.67382704 -0.31351342 0.048131147 0.36884819 0.56313559 0.71850792 0.90008507 1.047931 1.0429636 0.89953366 1.0279334 1.026368 0.91264163 0.6238852 0.77580761 0.9005531999999999 0.51607342 0.84117045 0.57778281 0.53402255 0.80115669 0.68692175 0.58087065 0.49762567 0.45019918 0.52066011 0.45495261 0.3871647 0.3048046 0.21445674 0.20228491 0.24764394 0.22296468 -0.040042392999999996 0.21030657 0.10010929 0.51042812 0.57268599
-1.8217105 -1.6917148000000002 -1.8294197 -1.8667598 -1.9627095 -1.9313763 -1.7372130000000001 -1.8744234 -1.6583345 -1.206337 -0.98843838 -0.67382704 -0.31351342 0.048131147 0.36884819 0.56313559 0.71850792 0.90008507 1.047931 1.0429636 0.89953366 1.0279334 1.026368 0.91264163 0.6238852 0.77580761 0.9005531999999999 0.51607342 0.84117045 0.57778281 0.53402255 0.80115669 0.68692175 0.58087065 0.49762567 0.45019918 0.52066011 0.45495261 0.3871647 0.3048046 0.21445674 0.20228491 0.24764394 0.22296468 -0.040042392999999996 0.21030657 0.10010929 0.51042812 0.57268599 0.48502131
-1.6917148000000002 -1.8294197 -1.8667598 -1.9627095 -1.9313763 -1.7372130000000001 -1.8744234 -1.6583345 -1.206337 -0.98843838 -0.67382704 -0.31351342 0.048131147 0.36884819 0.56313559 0.71850792 0.90008507 1.047931 1.0429636 0.89953366 1.0279334 1.026368 0.91264163 0.6238852 0.77580761 0.9005531999999999 0.51607342 0.84117045 0.57778281 0.53402255 0.80115669 0.68692175 0.58087065 0.49762567 0.45019918 0.52066011 0.45495261 0.3871647 0.3048046 0.21445674 0.20228491 0.24764394 0.22296468 -0.040042392999999996 0.21030657 0.10010929 0.51042812 0.57268599 0.48502131 1.1681583
-1.8294197 -1.8667598 -1.9627095 -1.9313763 -1.7372130000000001 -1.8744234 -1.6583345 -1.206337 -0.98843838 -0.67382704 -0.31351342 0.048131147 0.36884819 0.56313559 0.71850792 0.90008507 1.047931 1.0429636 0.89953366 1.0279334 1.026368 0.91264163 0.6238852 0.77580761 0.9005531999999999 0.51607342 0.84117045 0.57778281 0.53402255 0.80115669 0.68692175 0.58087065 0.49762567 0.45019918 0.52066011 0.45495261 0.3871647 0.3048046 0.21445674 0.20228491 0.24764394 0.22296468 -0.040042392999999996 0.21030657 0.10010929 0.51042812 0.57268599 0.48502131 1.1681583 0.74938465
-1.8667598 -1.9627095 -1.9313763 -1.7372130000000001 -1.8744234 -1.6583345 -1.206337 -0.98843838 -0.67382704 -0.31351342 0.048131147 0.36884819 0.56313559 0.71850792 0.90008507 1.047931 1.0429636 0.89953366 1.0279334 1.026368 0.91264163 0.6238852 0.77580761 0.9005531999999999 0.51607342 0.84117045 0.57778281 0.53402255 0.80115669 0.68692175 0.58087065 0.49762567 0.45019918 0.52066011 0.45495261 0.3871647 0.3048046 0.21445674 0.20228491 0.24764394 0.22296468 -0.040042392999999996 0.21030657 0.10010929 0.51042812 0.57268599 0.48502131 1.1681583 0.74938465 0.04494477
-1.9627095 -1.9313763 -1.7372130000000001 -1.8744234 -1.6583345 -1.206337 -0.98843838 -0.67382704 -0.31351342 0.048131147 0.36884819 0.56313559 0.71850792 0.90008507 1.047931 1.0429636 0.89953366 1.0279334 1.026368 0.91264163 0.6238852 0.77580761 0.9005531999999999 0.51607342 0.84117045 0.57778281 0.53402255 0.80115669 0.68692175 0.58087065 0.49762567 0.45019918 0.52066011 0.45495261 0.3871647 0.3048046 0.21445674 0.20228491 0.24764394 0.22296468 -0.040042392999999996 0.21030657 0.10010929 0.51042812 0.57268599 0.48502131 1.1681583 0.74938465 0.04494477 -0.066675367
-1.9313763 -1.7372130000000001 -1.8744234 -1.6583345 -1.206337 -0.98843838 -0.67382704 -0.31351342 0.048131147 0.36884819 0.56313559 0.71850792 0.90008507 1.047931 1.0429636 0.89953366 1.0279334 1.026368 0.91264163 0.6238852 0.77580761 0.9005531999999999 0.51607342 0.84117045 0.57778281 0.53402255 0.80115669 0.68692175 0.58087065 0.49762567 0.45019918 0.52066011 0.45495261 0.3871647 0.3048046 0.21445674 0.20228491 0.24764394 0.22296468 -0.040042392999999996 0.21030657 0.10010929 0.51042812 0.57268599 0.48502131 1.1681583 0.74938465 0.04494477 -0.066675367 -0.08406560099999999
-1.7372130000000001 -1.8744234 -1.6583345 -1.206337 -0.98843838 -0.67382704 -0.31351342 0.048131147 0.36884819 0.56313559 0.71850792 0.90008507 1.047931 1.0429636 0.89953366 1.0279334 1.026368 0.91264163 0.6238852 0.77580761 0.9005531999999999 0.51607342 0.84117045 0.57778281 0.53402255 0.80115669 0.68692175 0.58087065 0.49762567 0.45019918 0.52066011 0.45495261 0.3871647 0.3048046 0.21445674 0.20228491 0.24764394 0.22296468 -0.040042392999999996 0.21030657 0.10010929 0.51042812 0.57268599 0.48502131 1.1681583 0.74938465 0.04494477 -0.066675367 -0.08406560099999999 -0.04429502
-1.8744234 -1.6583345 -1.206337 -0.98843838 -0.67382704 -0.31351342 0.048131147 0.36884819 0.56313559 0.71850792 0.90008507 1.047931 1.0429636 0.89953366 1.0279334 1.026368 0.91264163 0.6238852 0.77580761 0.9005531999999999 0.51607342 0.84117045 0.57778281 0.53402255 0.80115669 0.68692175 0.58087065 0.49762567 0.45019918 0.52066011 0.45495261 0.3871647 0.3048046 0.21445674 0.20228491 0.24764394 0.22296468 -0.040042392999999996 0.21030657 0.10010929 0.51042812 0.57268599 0.48502131 1.1681583 0.74938465 0.04494477 -0.066675367 -0.08406560099999999 -0.04429502 -0.21687749
-1.6583345 -1.206337 -0.98843838 -0.67382704 -0.31351342 0.048131147 0.36884819 0.56313559 0.71850792 0.90008507 1.047931 1.0429636 0.89953366 1.0279334 1.026368 0.91264163 0.6238852 0.77580761 0.9005531999999999 0.51607342 0.84117045 0.57778281 0.53402255 0.80115669 0.68692175 0.58087065 0.49762567 0.45019918 0.52066011 0.45495261 0.3871647 0.3048046 0.21445674 0.20228491 0.24764394 0.22296468 -0.040042392999999996 0.21030657 0.10010929 0.51042812 0.57268599 0.48502131 1.1681583 0.74938465 0.04494477 -0.066675367 -0.08406560099999999 -0.04429502 -0.21687749 -0.19060671
-1.206337 -0.98843838 -0.67382704 -0.31351342 0.048131147 0.36884819 0.56313559 0.71850792 0.90008507 1.047931 1.0429636 0.89953366 1.0279334 1.026368 0.91264163 0.6238852 0.77580761 0.9005531999999999 0.51607342 0.84117045 0.57778281 0.53402255 0.80115669 0.68692175 0.58087065 0.49762567 0.45019918 0.52066011 0.45495261 0.3871647 0.3048046 0.21445674 0.20228491 0.24764394 0.22296468 -0.040042392999999996 0.21030657 0.10010929 0.51042812 0.57268599 0.48502131 1.1681583 0.74938465 0.04494477 -0.066675367 -0.08406560099999999 -0.04429502 -0.21687749 -0.19060671 -0.15579939
-0.98843838 -0.67382704 -0.31351342 0.048131147 0.36884819 0.56313559 0.71850792 0.90008507 1.047931 1.0429636 0.89953366 1.0279334 1.026368 0.91264163 0.6238852 0.77580761 0.9005531999999999 0.51607342 0.84117045 0.57778281 0.53402255 0.80115669 0.68692175 0.58087065 0.49762567 0.45019918 0.52066011 0.45495261 0.3871647 0.3048046 0.21445674 0.20228491 0.24764394 0.22296468 -0.040042392999999996 0.21030657 0.10010929 0.51042812 0.57268599 0.48502131 1.1681583 0.74938465 0.04494477 -0.066675367 -0.08406560099999999 -0.04429502 -0.21687749 -0.19060671 -0.15579939 -0.34512885
-0.67382704 -0.31351342 0.048131147 0.36884819 0.56313559 0.71850792 0.90008507 1.047931 1.0429636 0.89953366 1.0279334 1.026368 0.91264163 0.6238852 0.77580761 0.9005531999999999 0.51607342 0.84117045 0.57778281 0.53402255 0.80115669 0.68692175 0.58087065 0.49762567 0.45019918 0.52066011 0.45495261 0.3871647 0.3048046 0.21445674 0.20228491 0.24764394 0.22296468 -0.040042392999999996 0.21030657 0.10010929 0.51042812 0.57268599 0.48502131 1.1681583 0.74938465 0.04494477 -0.066675367 -0.08406560099999999 -0.04429502 -0.21687749 -0.19060671 -0.15579939 -0.34512885 -0.16215852
-0.31351342 0.048131147 0.36884819 0.56313559 0.71850792 0.90008507 1.047931 1.0429636 0.89953366 1.0279334 1.026368 0.91264163 0.6238852 0.77580761 0.9005531999999999 0.51607342 0.84117045 0.57778281 0.53402255 0.80115669 0.68692175 0.58087065 0.49762567 0.45019918 0.52066011 0.45495261 0.3871647 0.3048046 0.21445674 0.20228491 0.24764394 0.22296468 -0.040042392999999996 0.21030657 0.10010929 0.51042812 0.57268599 0.48502131 1.1681583 0.74938465 0.04494477 -0.066675367 -0.08406560099999999 -0.04429502 -0.21687749 -0.19060671 -0.15579939 -0.34512885 -0.16215852 -0.047013085999999996
0.048131147 0.36884819 0.56313559 0.71850792 0.90008507 1.047931 1.0429636 0.89953366 1.0279334 1.026368 0.91264163 0.6238852 0.77580761 0.9005531999999999 0.51607342 0.84117045 0.57778281 0.53402255 0.80115669 0.68692175 0.58087065 0.49762567 0.45019918 0.52066011 0.45495261 0.3871647 0.3048046 0.21445674 0.20228491 0.24764394 0.22296468 -0.040042392999999996 0.21030657 0.10010929 0.51042812 0.57268599 0.48502131 1.1681583 0.74938465 0.04494477 -0.066675367 -0.08406560099999999 -0.04429502 -0.21687749 -0.19060671 -0.15579939 -0.34512885 -0.16215852 -0.047013085999999996 -0.43940214
0.36884819 0.56313559 0.71850792 0.90008507 1.047931 1.0429636 0.89953366 1.0279334 1.026368 0.91264163 0.6238852 0.77580761 0.9005531999999999 0.51607342 0.84117045 0.57778281 0.53402255 0.80115669 0.68692175 0.58087065 0.49762567 0.45019918 0.52066011 0.45495261 0.3871647 0.3048046 0.21445674 0.20228491 0.24764394 0.22296468 -0.040042392999999996 0.21030657 0.10010929 0.51042812 0.57268599 0.48502131 1.1681583 0.74938465 0.04494477 -0.066675367 -0.08406560099999999 -0.04429502 -0.21687749 -0.19060671 -0.15579939 -0.34512885 -0.16215852 -0.047013085999999996 -0.43940214 -0.33467576
0.56313559 0.71850792 0.90008507 1.047931 1.0429636 0.89953366 1.0279334 1.026368 0.91264163 0.6238852 0.77580761 0.9005531999999999 0.51607342 0.84117045 0.57778281 0.53402255 0.80115669 0.68692175 0.58087065 0.49762567 0.45019918 0.52066011 0.45495261 0.3871647 0.3048046 0.21445674 0.20228491 0.24764394 0.22296468 -0.040042392999999996 0.21030657 0.10010929 0.51042812 0.57268599 0.48502131 1.1681583 0.74938465 0.04494477 -0.066675367 -0.08406560099999999 -0.04429502 -0.21687749 -0.19060671 -0.15579939 -0.34512885 -0.16215852 -0.047013085999999996 -0.43940214 -0.33467576 -0.18828509
0.71850792 0.90008507 1.047931 1.0429636 0.89953366 1.0279334 1.026368 0.91264163 0.6238852 0.77580761 0.9005531999999999 0.51607342 0.84117045 0.57778281 0.53402255 0.80115669 0.68692175 0.58087065 0.49762567 0.45019918 0.52066011 0.45495261 0.3871647 0.3048046 0.21445674 0.20228491 0.24764394 0.22296468 -0.040042392999999996 0.21030657 0.10010929 0.51042812 0.57268599 0.48502131 1.1681583 0.74938465 0.04494477 -0.066675367 -0.08406560099999999 -0.04429502 -0.21687749 -0.19060671 -0.15579939 -0.34512885 -0.16215852 -0.047013085999999996 -0.43940214 -0.33467576 -0.18828509 -0.25589394
0.90008507 1.047931 1.0429636 0.89953366 1.0279334 1.026368 0.91264163 0.6238852 0.77580761 0.9005531999999999 0.51607342 0.84117045 0.57778281 0.53402255 0.80115669 0.68692175 0.58087065 0.49762567 0.45019918 0.52066011 0.45495261 0.3871647 0.3048046 0.21445674 0.20228491 0.24764394 0.22296468 -0.040042392999999996 0.21030657 0.10010929 0.51042812 0.57268599 0.48502131 1.1681583 0.74938465 0.04494477 -0.066675367 -0.08406560099999999 -0.04429502 -0.21687749 -0.19060671 -0.15579939 -0.34512885 -0.16215852 -0.047013085999999996 -0.43940214 -0.33467576 -0.18828509 -0.25589394 -0.15220019
1.047931 1.0429636 0.89953366 1.0279334 1.026368 0.91264163 0.6238852 0.77580761 0.9005531999999999 0.51607342 0.84117045 0.57778281 0.53402255 0.80115669 0.68692175 0.58087065 0.49762567 0.45019918 0.52066011 0.45495261 0.3871647 0.3048046 0.21445674 0.20228491 0.24764394 0.22296468 -0.040042392999999996 0.21030657 0.10010929 0.51042812 0.57268599 0.48502131 1.1681583 0.74938465 0.04494477 -0.066675367 -0.08406560099999999 -0.04429502 -0.21687749 -0.19060671 -0.15579939 -0.34512885 -0.16215852 -0.047013085999999996 -0.43940214 -0.33467576 -0.18828509 -0.25589394 -0.15220019 -0.24433304
1.0429636 0.89953366 1.0279334 1.026368 0.91264163 0.6238852 0.77580761 0.9005531999999999 0.51607342 0.84117045 0.57778281 0.53402255 0.80115669 0.68692175 0.58087065 0.49762567 0.45019918 0.52066011 0.45495261 0.3871647 0.3048046 0.21445674 0.20228491 0.24764394 0.22296468 -0.040042392999999996 0.21030657 0.10010929 0.51042812 0.57268599 0.48502131 1.1681583 0.74938465 0.04494477 -0.066675367 -0.08406560099999999 -0.04429502 -0.21687749 -0.19060671 -0.15579939 -0.34512885 -0.16215852 -0.047013085999999996 -0.43940214 -0.33467576 -0.18828509 -0.25589394 -0.15220019 -0.24433304 -0.34811243
0.89953366 1.0279334 1.026368 0.91264163 0.6238852 0.77580761 0.9005531999999999 0.51607342 0.84117045 0.57778281 0.53402255 0.80115669 0.68692175 0.58087065 0.49762567 0.45019918 0.52066011 0.45495261 0.3871647 0.3048046 0.21445674 0.20228491 0.24764394 0.22296468 -0.040042392999999996 0.21030657 0.10010929 0.51042812 0.57268599 0.48502131 1.1681583 0.74938465 0.04494477 -0.066675367 -0.08406560099999999 -0.04429502 -0.21687749 -0.19060671 -0.15579939 -0.34512885 -0.16215852 -0.047013085999999996 -0.43940214 -0.33467576 -0.18828509 -0.25589394 -0.15220019 -0.24433304 -0.34811243 -0.28285676
