1.4684175 3.2539464 3.5995102999999995 2.3933767 0.41737672 1.0714540000000001 1.6858630000000001 1.5729415 1.7088762 1.0320818 0.05307411 -0.50839812 -0.47231375 -0.70552421 -0.78626011 -0.9431652 -1.0633661 -1.1682489999999999 -1.155859 -1.2921201999999998 -1.4191115 -1.4850444 -1.6273653000000001 -1.8020692999999999 -1.8703254 -1.9727786 -2.0736688 -2.0545869999999997 -1.9235598000000003 -1.7610525000000001 -1.5644783000000002 -1.1734368999999998 -0.64637223 -0.29916933 0.033866505 0.43856506 0.55741685 0.83684083 0.86219204 0.86332303 0.73373806 0.74286369 0.71255677 0.56798877 0.55329732 0.63970949 0.53078 0.52132135 0.48752349999999994 0.42475336
3.2539464 3.5995102999999995 2.3933767 0.41737672 1.0714540000000001 1.6858630000000001 1.5729415 1.7088762 1.0320818 0.05307411 -0.50839812 -0.47231375 -0.70552421 -0.78626011 -0.9431652 -1.0633661 -1.1682489999999999 -1.155859 -1.2921201999999998 -1.4191115 -1.4850444 -1.6273653000000001 -1.8020692999999999 -1.8703254 -1.9727786 -2.0736688 -2.0545869999999997 -1.9235598000000003 -1.7610525000000001 -1.5644783000000002 -1.1734368999999998 -0.64637223 -0.29916933 0.033866505 0.43856506 0.55741685 0.83684083 0.86219204 0.86332303 0.73373806 0.74286369 0.71255677 0.56798877 0.55329732 0.63970949 0.53078 0.52132135 0.48752349999999994 0.42475336 0.29269957
3.5995102999999995 2.3933767 0.41737672 1.0714540000000001 1.6858630000000001 1.5729415 1.7088762 1.0320818 0.05307411 -0.50839812 -0.47231375 -0.70552421 -0.78626011 -0.9431652 -1.0633661 -1.1682489999999999 -1.155859 -1.2921201999999998 -1.4191115 -1.4850444 -1.6273653000000001 -1.8020692999999999 -1.8703254 -1.9727786 -2.0736688 -2.0545869999999997 -1.9235598000000003 -1.7610525000000001 -1.5644783000000002 -1.1734368999999998 -0.64637223 -0.29916933 0.033866505 0.43856506 0.55741685 0.83684083 0.86219204 0.86332303 0.73373806 0.74286369 0.71255677 0.56798877 0.55329732 0.63970949 0.53078 0.52132135 0.48752349999999994 0.42475336 0.29269957 0.4149625
2.3933767 0.41737672 1.0714540000000001 1.6858630000000001 1.5729415 1.7088762 1.0320818 0.05307411 -0.50839812 -0.47231375 -0.70552421 -0.78626011 -0.9431652 -1.0633661 -1.1682489999999999 -1.155859 -1.2921201999999998 -1.4191115 -1.4850444 -1.6273653000000001 -1.8020692999999999 -1.8703254 -1.9727786 -2.0736688 -2.0545869999999997 -1.9235598000000003 -1.7610525000000001 -1.5644783000000002 -1.1734368999999998 -0.64637223 -0.29916933 0.033866505 0.43856506 0.55741685 0.83684083 0.86219204 0.86332303 0.73373806 0.74286369 0.71255677 0.56798877 0.55329732 0.63970949 0.53078 0.52132135 0.48752349999999994 0.42475336 0.29269957 0.4149625 0.36965221
0.41737672 1.0714540000000001 1.6858630000000001 1.5729415 1.7088762 1.0320818 0.05307411 -0.50839812 -0.47231375 -0.70552421 -0.78626011 -0.9431652 -1.0633661 -1.1682489999999999 -1.155859 -1.2921201999999998 -1.4191115 -1.4850444 -1.6273653000000001 -1.8020692999999999 -1.8703254 -1.9727786 -2.0736688 -2.0545869999999997 -1.9235598000000003 -1.7610525000000001 -1.5644783000000002 -1.1734368999999998 -0.64637223 -0.29916933 0.033866505 0.43856506 0.55741685 0.83684083 0.86219204 0.86332303 0.73373806 0.74286369 0.71255677 0.56798877 0.55329732 0.63970949 0.53078 0.52132135 0.48752349999999994 0.42475336 0.29269957 0.4149625 0.36965221 0.15175597
1.0714540000000001 1.6858630000000001 1.5729415 1.7088762 1.0320818 0.05307411 -0.50839812 -0.47231375 -0.70552421 -0.78626011 -0.9431652 -1.0633661 -1.1682489999999999 -1.155859 -1.2921201999999998 -1.4191115 -1.4850444 -1.6273653000000001 -1.8020692999999999 -1.8703254 -1.9727786 -2.0736688 -2.0545869999999997 -1.9235598000000003 -1.7610525000000001 -1.5644783000000002 -1.1734368999999998 -0.64637223 -0.29916933 0.033866505 0.43856506 0.55741685 0.83684083 0.86219204 0.86332303 0.73373806 0.74286369 0.71255677 0.56798877 0.55329732 0.63970949 0.53078 0.52132135 0.48752349999999994 0.42475336 0.29269957 0.4149625 0.36965221 0.15175597 0.18999208
1.6858630000000001 1.5729415 1.7088762 1.0320818 0.05307411 -0.50839812 -0.47231375 -0.70552421 -0.78626011 -0.9431652 -1.0633661 -1.1682489999999999 -1.155859 -1.2921201999999998 -1.4191115 -1.4850444 -1.6273653000000001 -1.8020692999999999 -1.8703254 -1.9727786 -2.0736688 -2.0545869999999997 -1.9235598000000003 -1.7610525000000001 -1.5644783000000002 -1.1734368999999998 -0.64637223 -0.29916933 0.033866505 0.43856506 0.55741685 0.83684083 0.86219204 0.86332303 0.73373806 0.74286369 0.71255677 0.56798877 0.55329732 0.63970949 0.53078 0.52132135 0.48752349999999994 0.42475336 0.29269957 0.4149625 0.36965221 0.15175597 0.18999208 0.20083312
1.5729415 1.7088762 1.0320818 0.05307411 -0.50839812 -0.47231375 -0.70552421 -0.78626011 -0.9431652 -1.0633661 -1.1682489999999999 -1.155859 -1.2921201999999998 -1.4191115 -1.4850444 -1.6273653000000001 -1.8020692999999999 -1.8703254 -1.9727786 -2.0736688 -2.0545869999999997 -1.9235598000000003 -1.7610525000000001 -1.5644783000000002 -1.1734368999999998 -0.64637223 -0.29916933 0.033866505 0.43856506 0.55741685 0.83684083 0.86219204 0.86332303 0.73373806 0.74286369 0.71255677 0.56798877 0.55329732 0.63970949 0.53078 0.52132135 0.48752349999999994 0.42475336 0.29269957 0.4149625 0.36965221 0.15175597 0.18999208 0.20083312 0.097209651
1.7088762 1.0320818 0.05307411 -0.50839812 -0.47231375 -0.70552421 -0.78626011 -0.9431652 -1.0633661 -1.1682489999999999 -1.155859 -1.2921201999999998 -1.4191115 -1.4850444 -1.6273653000000001 -1.8020692999999999 -1.8703254 -1.9727786 -2.0736688 -2.0545869999999997 -1.9235598000000003 -1.7610525000000001 -1.5644783000000002 -1.1734368999999998 -0.64637223 -0.29916933 0.033866505 0.43856506 0.55741685 0.83684083 0.86219204 0.86332303 0.73373806 0.74286369 0.71255677 0.56798877 0.55329732 0.63970949 0.53078 0.52132135 0.48752349999999994 0.42475336 0.29269957 0.4149625 0.36965221 0.15175597 0.18999208 0.20083312 0.097209651 0.037613957999999996
1.0320818 0.05307411 -0.50839812 -0.47231375 -0.70552421 -0.78626011 -0.9431652 -1.0633661 -1.1682489999999999 -1.155859 -1.2921201999999998 -1.4191115 -1.4850444 -1.6273653000000001 -1.8020692999999999 -1.8703254 -1.9727786 -2.0736688 -2.0545869999999997 -1.9235598000000003 -1.7610525000000001 -1.5644783000000002 -1.1734368999999998 -0.64637223 -0.29916933 0.033866505 0.43856506 0.55741685 0.83684083 0.86219204 0.86332303 0.73373806 0.74286369 0.71255677 0.56798877 0.55329732 0.63970949 0.53078 0.52132135 0.48752349999999994 0.42475336 0.29269957 0.4149625 0.36965221 0.15175597 0.18999208 0.20083312 0.097209651 0.037613957999999996 0.11253864
0.05307411 -0.50839812 -0.47231375 -0.70552421 -0.78626011 -0.9431652 -1.0633661 -1.1682489999999999 -1.155859 -1.2921201999999998 -1.4191115 -1.4850444 -1.6273653000000001 -1.8020692999999999 -1.8703254 -1.9727786 -2.0736688 -2.0545869999999997 -1.9235598000000003 -1.7610525000000001 -1.5644783000000002 -1.1734368999999998 -0.64637223 -0.29916933 0.033866505 0.43856506 0.55741685 0.83684083 0.86219204 0.86332303 0.73373806 0.74286369 0.71255677 0.56798877 0.55329732 0.63970949 0.53078 0.52132135 0.48752349999999994 0.42475336 0.29269957 0.4149625 0.36965221 0.15175597 0.18999208 0.20083312 0.097209651 0.037613957999999996 0.11253864 0.033237732
-0.50839812 -0.47231375 -0.70552421 -0.78626011 -0.9431652 -1.0633661 -1.1682489999999999 -1.155859 -1.2921201999999998 -1.4191115 -1.4850444 -1.6273653000000001 -1.8020692999999999 -1.8703254 -1.9727786 -2.0736688 -2.0545869999999997 -1.9235598000000003 -1.7610525000000001 -1.5644783000000002 -1.1734368999999998 -0.64637223 -0.29916933 0.033866505 0.43856506 0.55741685 0.83684083 0.86219204 0.86332303 0.73373806 0.74286369 0.71255677 0.56798877 0.55329732 0.63970949 0.53078 0.52132135 0.48752349999999994 0.42475336 0.29269957 0.4149625 0.36965221 0.15175597 0.18999208 0.20083312 0.097209651 0.037613957999999996 0.11253864 0.033237732 -0.02367321
-0.47231375 -0.70552421 -0.78626011 -0.9431652 -1.0633661 -1.1682489999999999 -1.155859 -1.2921201999999998 -1.4191115 -1.4850444 -1.6273653000000001 -1.8020692999999999 -1.8703254 -1.9727786 -2.0736688 -2.0545869999999997 -1.9235598000000003 -1.7610525000000001 -1.5644783000000002 -1.1734368999999998 -0.64637223 -0.29916933 0.033866505 0.43856506 0.55741685 0.83684083 0.86219204 0.86332303 0.73373806 0.74286369 0.71255677 0.56798877 0.55329732 0.63970949 0.53078 0.52132135 0.48752349999999994 0.42475336 0.29269957 0.4149625 0.36965221 0.15175597 0.18999208 0.20083312 0.097209651 0.037613957999999996 0.11253864 0.033237732 -0.02367321 0.050143982000000004
-0.70552421 -0.78626011 -0.9431652 -1.0633661 -1.1682489999999999 -1.155859 -1.2921201999999998 -1.4191115 -1.4850444 -1.6273653000000001 -1.8020692999999999 -1.8703254 -1.9727786 -2.0736688 -2.0545869999999997 -1.9235598000000003 -1.7610525000000001 -1.5644783000000002 -1.1734368999999998 -0.64637223 -0.29916933 0.033866505 0.43856506 0.55741685 0.83684083 0.86219204 0.86332303 0.73373806 0.74286369 0.71255677 0.56798877 0.55329732 0.63970949 0.53078 0.52132135 0.48752349999999994 0.42475336 0.29269957 0.4149625 0.36965221 0.15175597 0.18999208 0.20083312 0.097209651 0.037613957999999996 0.11253864 0.033237732 -0.02367321 0.050143982000000004 0.02095634
-0.78626011 -0.9431652 -1.0633661 -1.1682489999999999 -1.155859 -1.2921201999999998 -1.4191115 -1.4850444 -1.6273653000000001 -1.8020692999999999 -1.8703254 -1.9727786 -2.0736688 -2.0545869999999997 -1.9235598000000003 -1.7610525000000001 -1.5644783000000002 -1.1734368999999998 -0.64637223 -0.29916933 0.033866505 0.43856506 0.55741685 0.83684083 0.86219204 0.86332303 0.73373806 0.74286369 0.71255677 0.56798877 0.55329732 0.63970949 0.53078 0.52132135 0.48752349999999994 0.42475336 0.29269957 0.4149625 0.36965221 0.15175597 0.18999208 0.20083312 0.097209651 0.037613957999999996 0.11253864 0.033237732 -0.02367321 0.050143982000000004 0.02095634 -0.095082575
-0.9431652 -1.0633661 -1.1682489999999999 -1.155859 -1.2921201999999998 -1.4191115 -1.4850444 -1.6273653000000001 -1.8020692999999999 -1.8703254 -1.9727786 -2.0736688 -2.0545869999999997 -1.9235598000000003 -1.7610525000000001 -1.5644783000000002 -1.1734368999999998 -0.64637223 -0.29916933 0.033866505 0.43856506 0.55741685 0.83684083 0.86219204 0.86332303 0.73373806 0.74286369 0.71255677 0.56798877 0.55329732 0.63970949 0.53078 0.52132135 0.48752349999999994 0.42475336 0.29269957 0.4149625 0.36965221 0.15175597 0.18999208 0.20083312 0.097209651 0.037613957999999996 0.11253864 0.033237732 -0.02367321 0.050143982000000004 0.02095634 -0.095082575 -0.039961331
-1.0633661 -1.1682489999999999 -1.155859 -1.2921201999999998 -1.4191115 -1.4850444 -1.6273653000000001 -1.8020692999999999 -1.8703254 -1.9727786 -2.0736688 -2.0545869999999997 -1.9235598000000003 -1.7610525000000001 -1.5644783000000002 -1.1734368999999998 -0.64637223 -0.29916933 0.033866505 0.43856506 0.55741685 0.83684083 0.86219204 0.86332303 0.73373806 0.74286369 0.71255677 0.56798877 0.55329732 0.63970949 0.53078 0.52132135 0.48752349999999994 0.42475336 0.29269957 0.4149625 0.36965221 0.15175597 0.18999208 0.20083312 0.097209651 0.037613957999999996 0.11253864 0.033237732 -0.02367321 0.050143982000000004 0.02095634 -0.095082575 -0.039961331 0.039653284
-1.1682489999999999 -1.155859 -1.2921201999999998 -1.4191115 -1.4850444 -1.6273653000000001 -1.8020692999999999 -1.8703254 -1.9727786 -2.0736688 -2.0545869999999997 -1.9235598000000003 -1.7610525000000001 -1.5644783000000002 -1.1734368999999998 -0.64637223 -0.29916933 0.033866505 0.43856506 0.55741685 0.83684083 0.86219204 0.86332303 0.73373806 0.74286369 0.71255677 0.56798877 0.55329732 0.63970949 0.53078 0.52132135 0.48752349999999994 0.42475336 0.29269957 0.4149625 0.36965221 0.15175597 0.18999208 0.20083312 0.097209651 0.037613957999999996 0.11253864 0.033237732 -0.02367321 0.050143982000000004 0.02095634 -0.095082575 -0.039961331 0.039653284 0.030251267999999998
-1.155859 -1.2921201999999998 -1.4191115 -1.4850444 -1.6273653000000001 -1.8020692999999999 -1.8703254 -1.9727786 -2.0736688 -2.0545869999999997 -1.9235598000000003 -1.7610525000000001 -1.5644783000000002 -1.1734368999999998 -0.64637223 -0.29916933 0.033866505 0.43856506 0.55741685 0.83684083 0.86219204 0.86332303 0.73373806 0.74286369 0.71255677 0.56798877 0.55329732 0.63970949 0.53078 0.52132135 0.48752349999999994 0.42475336 0.29269957 0.4149625 0.36965221 0.15175597 0.18999208 0.20083312 0.097209651 0.037613957999999996 0.11253864 0.033237732 -0.02367321 0.050143982000000004 0.02095634 -0.095082575 -0.039961331 0.039653284 0.030251267999999998 -0.1301563
-1.2921201999999998 -1.4191115 -1.4850444 -1.6273653000000001 -1.8020692999999999 -1.8703254 -1.9727786 -2.0736688 -2.0545869999999997 -1.9235598000000003 -1.7610525000000001 -1.5644783000000002 -1.1734368999999998 -0.64637223 -0.29916933 0.033866505 0.43856506 0.55741685 0.83684083 0.86219204 0.86332303 0.73373806 0.74286369 0.71255677 0.56798877 0.55329732 0.63970949 0.53078 0.52132135 0.48752349999999994 0.42475336 0.29269957 0.4149625 0.36965221 0.15175597 0.18999208 0.20083312 0.097209651 0.037613957999999996 0.11253864 0.033237732 -0.02367321 0.050143982000000004 0.02095634 -0.095082575 -0.039961331 0.039653284 0.030251267999999998 -0.1301563 0.11555639999999999
-1.4191115 -1.4850444 -1.6273653000000001 -1.8020692999999999 -1.8703254 -1.9727786 -2.0736688 -2.0545869999999997 -1.9235598000000003 -1.7610525000000001 -1.5644783000000002 -1.1734368999999998 -0.64637223 -0.29916933 0.033866505 0.43856506 0.55741685 0.83684083 0.86219204 0.86332303 0.73373806 0.74286369 0.71255677 0.56798877 0.55329732 0.63970949 0.53078 0.52132135 0.48752349999999994 0.42475336 0.29269957 0.4149625 0.36965221 0.15175597 0.18999208 0.20083312 0.097209651 0.037613957999999996 0.11253864 0.033237732 -0.02367321 0.050143982000000004 0.02095634 -0.095082575 -0.039961331 0.039653284 0.030251267999999998 -0.1301563 0.11555639999999999 -0.014236600000000002
-1.4850444 -1.6273653000000001 -1.8020692999999999 -1.8703254 -1.9727786 -2.0736688 -2.0545869999999997 -1.9235598000000003 -1.7610525000000001 -1.5644783000000002 -1.1734368999999998 -0.64637223 -0.29916933 0.033866505 0.43856506 0.55741685 0.83684083 0.86219204 0.86332303 0.73373806 0.74286369 0.71255677 0.56798877 0.55329732 0.63970949 0.53078 0.52132135 0.48752349999999994 0.42475336 0.29269957 0.4149625 0.36965221 0.15175597 0.18999208 0.20083312 0.097209651 0.037613957999999996 0.11253864 0.033237732 -0.02367321 0.050143982000000004 0.02095634 -0.095082575 -0.039961331 0.039653284 0.030251267999999998 -0.1301563 0.11555639999999999 -0.014236600000000002 -0.12020794
-1.6273653000000001 -1.8020692999999999 -1.8703254 -1.9727786 -2.0736688 -2.0545869999999997 -1.9235598000000003 -1.7610525000000001 -1.5644783000000002 -1.1734368999999998 -0.64637223 -0.29916933 0.033866505 0.43856506 0.55741685 0.83684083 0.86219204 0.86332303 0.73373806 0.74286369 0.71255677 0.56798877 0.55329732 0.63970949 0.53078 0.52132135 0.48752349999999994 0.42475336 0.29269957 0.4149625 0.36965221 0.15175597 0.18999208 0.20083312 0.097209651 0.037613957999999996 0.11253864 0.033237732 -0.02367321 0.050143982000000004 0.02095634 -0.095082575 -0.039961331 0.039653284 0.030251267999999998 -0.1301563 0.11555639999999999 -0.014236600000000002 -0.12020794 0.070485289
-1.8020692999999999 -1.8703254 -1.9727786 -2.0736688 -2.0545869999999997 -1.9235598000000003 -1.7610525000000001 -1.5644783000000002 -1.1734368999999998 -0.64637223 -0.29916933 0.033866505 0.43856506 0.55741685 0.83684083 0.86219204 0.86332303 0.73373806 0.74286369 0.71255677 0.56798877 0.55329732 0.63970949 0.53078 0.52132135 0.48752349999999994 0.42475336 0.29269957 0.4149625 0.36965221 0.15175597 0.18999208 0.20083312 0.097209651 0.037613957999999996 0.11253864 0.033237732 -0.02367321 0.050143982000000004 0.02095634 -0.095082575 -0.039961331 0.039653284 0.030251267999999998 -0.1301563 0.11555639999999999 -0.014236600000000002 -0.12020794 0.070485289 -0.013129003
-1.8703254 -1.9727786 -2.0736688 -2.0545869999999997 -1.9235598000000003 -1.7610525000000001 -1.5644783000000002 -1.1734368999999998 -0.64637223 -0.29916933 0.033866505 0.43856506 0.55741685 0.83684083 0.86219204 0.86332303 0.73373806 0.74286369 0.71255677 0.56798877 0.55329732 0.63970949 0.53078 0.52132135 0.48752349999999994 0.42475336 0.29269957 0.4149625 0.36965221 0.15175597 0.18999208 0.20083312 0.097209651 0.037613957999999996 0.11253864 0.033237732 -0.02367321 0.050143982000000004 0.02095634 -0.095082575 -0.039961331 0.039653284 0.030251267999999998 -0.1301563 0.11555639999999999 -0.014236600000000002 -0.12020794 0.070485289 -0.013129003 -0.063534613
-1.9727786 -2.0736688 -2.0545869999999997 -1.9235598000000003 -1.7610525000000001 -1.5644783000000002 -1.1734368999999998 -0.64637223 -0.29916933 0.033866505 0.43856506 0.55741685 0.83684083 0.86219204 0.86332303 0.73373806 0.74286369 0.71255677 0.56798877 0.55329732 0.63970949 0.53078 0.52132135 0.48752349999999994 0.42475336 0.29269957 0.4149625 0.36965221 0.15175597 0.18999208 0.20083312 0.097209651 0.037613957999999996 0.11253864 0.033237732 -0.02367321 0.050143982000000004 0.02095634 -0.095082575 -0.039961331 0.039653284 0.030251267999999998 -0.1301563 0.11555639999999999 -0.014236600000000002 -0.12020794 0.070485289 -0.013129003 -0.063534613 -0.060068932
-2.0736688 -2.0545869999999997 -1.9235598000000003 -1.7610525000000001 -1.5644783000000002 -1.1734368999999998 -0.64637223 -0.29916933 0.033866505 0.43856506 0.55741685 0.83684083 0.86219204 0.86332303 0.73373806 0.74286369 0.71255677 0.56798877 0.55329732 0.63970949 0.53078 0.52132135 0.48752349999999994 0.42475336 0.29269957 0.4149625 0.36965221 0.15175597 0.18999208 0.20083312 0.097209651 0.037613957999999996 0.11253864 0.033237732 -0.02367321 0.050143982000000004 0.02095634 -0.095082575 -0.039961331 0.039653284 0.030251267999999998 -0.1301563 0.11555639999999999 -0.014236600000000002 -0.12020794 0.070485289 -0.013129003 -0.063534613 -0.060068932 0.20159924
-2.0545869999999997 -1.9235598000000003 -1.7610525000000001 -1.5644783000000002 -1.1734368999999998 -0.64637223 -0.29916933 0.033866505 0.43856506 0.55741685 0.83684083 0.86219204 0.86332303 0.73373806 0.74286369 0.71255677 0.56798877 0.55329732 0.63970949 0.53078 0.52132135 0.48752349999999994 0.42475336 0.29269957 0.4149625 0.36965221 0.15175597 0.18999208 0.20083312 0.097209651 0.037613957999999996 0.11253864 0.033237732 -0.02367321 0.050143982000000004 0.02095634 -0.095082575 -0.039961331 0.039653284 0.030251267999999998 -0.1301563 0.11555639999999999 -0.014236600000000002 -0.12020794 0.070485289 -0.013129003 -0.063534613 -0.060068932 0.20159924 0.12560538
-1.9235598000000003 -1.7610525000000001 -1.5644783000000002 -1.1734368999999998 -0.64637223 -0.29916933 0.033866505 0.43856506 0.55741685 0.83684083 0.86219204 0.86332303 0.73373806 0.74286369 0.71255677 0.56798877 0.55329732 0.63970949 0.53078 0.52132135 0.48752349999999994 0.42475336 0.29269957 0.4149625 0.36965221 0.15175597 0.18999208 0.20083312 0.097209651 0.037613957999999996 0.11253864 0.033237732 -0.02367321 0.050143982000000004 0.02095634 -0.095082575 -0.039961331 0.039653284 0.030251267999999998 -0.1301563 0.11555639999999999 -0.014236600000000002 -0.12020794 0.070485289 -0.013129003 -0.063534613 -0.060068932 0.20159924 0.12560538 0.35961784
-1.7610525000000001 -1.5644783000000002 -1.1734368999999998 -0.64637223 -0.29916933 0.033866505 0.43856506 0.55741685 0.83684083 0.86219204 0.86332303 0.73373806 0.74286369 0.71255677 0.56798877 0.55329732 0.63970949 0.53078 0.52132135 0.48752349999999994 0.42475336 0.29269957 0.4149625 0.36965221 0.15175597 0.18999208 0.20083312 0.097209651 0.037613957999999996 0.11253864 0.033237732 -0.02367321 0.050143982000000004 0.02095634 -0.095082575 -0.039961331 0.039653284 0.030251267999999998 -0.1301563 0.11555639999999999 -0.014236600000000002 -0.12020794 0.070485289 -0.013129003 -0.063534613 -0.060068932 0.20159924 0.12560538 0.35961784 0.48612796
-1.5644783000000002 -1.1734368999999998 -0.64637223 -0.29916933 0.033866505 0.43856506 0.55741685 0.83684083 0.86219204 0.86332303 0.73373806 0.74286369 0.71255677 0.56798877 0.55329732 0.63970949 0.53078 0.52132135 0.48752349999999994 0.42475336 0.29269957 0.4149625 0.36965221 0.15175597 0.18999208 0.20083312 0.097209651 0.037613957999999996 0.11253864 0.033237732 -0.02367321 0.050143982000000004 0.02095634 -0.095082575 -0.039961331 0.039653284 0.030251267999999998 -0.1301563 0.11555639999999999 -0.014236600000000002 -0.12020794 0.070485289 -0.013129003 -0.063534613 -0.060068932 0.20159924 0.12560538 0.35961784 0.48612796 0.22319232
-1.1734368999999998 -0.64637223 -0.29916933 0.033866505 0.43856506 0.55741685 0.83684083 0.86219204 0.86332303 0.73373806 0.74286369 0.71255677 0.56798877 0.55329732 0.63970949 0.53078 0.52132135 0.48752349999999994 0.42475336 0.29269957 0.4149625 0.36965221 0.15175597 0.18999208 0.20083312 0.097209651 0.037613957999999996 0.11253864 0.033237732 -0.02367321 0.050143982000000004 0.02095634 -0.095082575 -0.039961331 0.039653284 0.030251267999999998 -0.1301563 0.11555639999999999 -0.014236600000000002 -0.12020794 0.070485289 -0.013129003 -0.063534613 -0.060068932 0.20159924 0.12560538 0.35961784 0.48612796 0.22319232 0.23449339999999996
-0.64637223 -0.29916933 0.033866505 0.43856506 0.55741685 0.83684083 0.86219204 0.86332303 0.73373806 0.74286369 0.71255677 0.56798877 0.55329732 0.63970949 0.53078 0.52132135 0.48752349999999994 0.42475336 0.29269957 0.4149625 0.36965221 0.15175597 0.18999208 0.20083312 0.097209651 0.037613957999999996 0.11253864 0.033237732 -0.02367321 0.050143982000000004 0.02095634 -0.095082575 -0.039961331 0.039653284 0.030251267999999998 -0.1301563 0.11555639999999999 -0.014236600000000002 -0.12020794 0.070485289 -0.013129003 -0.063534613 -0.060068932 0.20159924 0.12560538 0.35961784 0.48612796 0.22319232 0.23449339999999996 0.28242688
-0.29916933 0.033866505 0.43856506 0.55741685 0.83684083 0.86219204 0.86332303 0.73373806 0.74286369 0.71255677 0.56798877 0.55329732 0.63970949 0.53078 0.52132135 0.48752349999999994 0.42475336 0.29269957 0.4149625 0.36965221 0.15175597 0.18999208 0.20083312 0.097209651 0.037613957999999996 0.11253864 0.033237732 -0.02367321 0.050143982000000004 0.02095634 -0.095082575 -0.039961331 0.039653284 0.030251267999999998 -0.1301563 0.11555639999999999 -0.014236600000000002 -0.12020794 0.070485289 -0.013129003 -0.063534613 -0.060068932 0.20159924 0.12560538 0.35961784 0.48612796 0.22319232 0.23449339999999996 0.28242688 -0.13580683
0.033866505 0.43856506 0.55741685 0.83684083 0.86219204 0.86332303 0.73373806 0.74286369 0.71255677 0.56798877 0.55329732 0.63970949 0.53078 0.52132135 0.48752349999999994 0.42475336 0.29269957 0.4149625 0.36965221 0.15175597 0.18999208 0.20083312 0.097209651 0.037613957999999996 0.11253864 0.033237732 -0.02367321 0.050143982000000004 0.02095634 -0.095082575 -0.039961331 0.039653284 0.030251267999999998 -0.1301563 0.11555639999999999 -0.014236600000000002 -0.12020794 0.070485289 -0.013129003 -0.063534613 -0.060068932 0.20159924 0.12560538 0.35961784 0.48612796 0.22319232 0.23449339999999996 0.28242688 -0.13580683 -0.18727892
0.43856506 0.55741685 0.83684083 0.86219204 0.86332303 0.73373806 0.74286369 0.71255677 0.56798877 0.55329732 0.63970949 0.53078 0.52132135 0.48752349999999994 0.42475336 0.29269957 0.4149625 0.36965221 0.15175597 0.18999208 0.20083312 0.097209651 0.037613957999999996 0.11253864 0.033237732 -0.02367321 0.050143982000000004 0.02095634 -0.095082575 -0.039961331 0.039653284 0.030251267999999998 -0.1301563 0.11555639999999999 -0.014236600000000002 -0.12020794 0.070485289 -0.013129003 -0.063534613 -0.060068932 0.20159924 0.12560538 0.35961784 0.48612796 0.22319232 0.23449339999999996 0.28242688 -0.13580683 -0.18727892 -0.10947385
0.55741685 0.83684083 0.86219204 0.86332303 0.73373806 0.74286369 0.71255677 0.56798877 0.55329732 0.63970949 0.53078 0.52132135 0.48752349999999994 0.42475336 0.29269957 0.4149625 0.36965221 0.15175597 0.18999208 0.20083312 0.097209651 0.037613957999999996 0.11253864 0.033237732 -0.02367321 0.050143982000000004 0.02095634 -0.095082575 -0.039961331 0.039653284 0.030251267999999998 -0.1301563 0.11555639999999999 -0.014236600000000002 -0.12020794 0.070485289 -0.013129003 -0.063534613 -0.060068932 0.20159924 0.12560538 0.35961784 0.48612796 0.22319232 0.23449339999999996 0.28242688 -0.13580683 -0.18727892 -0.10947385 -0.20503522
0.83684083 0.86219204 0.86332303 0.73373806 0.74286369 0.71255677 0.56798877 0.55329732 0.63970949 0.53078 0.52132135 0.48752349999999994 0.42475336 0.29269957 0.4149625 0.36965221 0.15175597 0.18999208 0.20083312 0.097209651 0.037613957999999996 0.11253864 0.033237732 -0.02367321 0.050143982000000004 0.02095634 -0.095082575 -0.039961331 0.039653284 0.030251267999999998 -0.1301563 0.11555639999999999 -0.014236600000000002 -0.12020794 0.070485289 -0.013129003 -0.063534613 -0.060068932 0.20159924 0.12560538 0.35961784 0.48612796 0.22319232 0.23449339999999996 0.28242688 -0.13580683 -0.18727892 -0.10947385 -0.20503522 -0.11603394
0.86219204 0.86332303 0.73373806 0.74286369 0.71255677 0.56798877 0.55329732 0.63970949 0.53078 0.52132135 0.48752349999999994 0.42475336 0.29269957 0.4149625 0.36965221 0.15175597 0.18999208 0.20083312 0.097209651 0.037613957999999996 0.11253864 0.033237732 -0.02367321 0.050143982000000004 0.02095634 -0.095082575 -0.039961331 0.039653284 0.030251267999999998 -0.1301563 0.11555639999999999 -0.014236600000000002 -0.12020794 0.070485289 -0.013129003 -0.063534613 -0.060068932 0.20159924 0.12560538 0.35961784 0.48612796 0.22319232 0.23449339999999996 0.28242688 -0.13580683 -0.18727892 -0.10947385 -0.20503522 -0.11603394 -0.17146032
0.86332303 0.73373806 0.74286369 0.71255677 0.56798877 0.55329732 0.63970949 0.53078 0.52132135 0.48752349999999994 0.42475336 0.29269957 0.4149625 0.36965221 0.15175597 0.18999208 0.20083312 0.097209651 0.037613957999999996 0.11253864 0.033237732 -0.02367321 0.050143982000000004 0.02095634 -0.095082575 -0.039961331 0.039653284 0.030251267999999998 -0.1301563 0.11555639999999999 -0.014236600000000002 -0.12020794 0.070485289 -0.013129003 -0.063534613 -0.060068932 0.20159924 0.12560538 0.35961784 0.48612796 0.22319232 0.23449339999999996 0.28242688 -0.13580683 -0.18727892 -0.10947385 -0.20503522 -0.11603394 -0.17146032 -0.15398275
0.73373806 0.74286369 0.71255677 0.56798877 0.55329732 0.63970949 0.53078 0.52132135 0.48752349999999994 0.42475336 0.29269957 0.4149625 0.36965221 0.15175597 0.18999208 0.20083312 0.097209651 0.037613957999999996 0.11253864 0.033237732 -0.02367321 0.050143982000000004 0.02095634 -0.095082575 -0.039961331 0.039653284 0.030251267999999998 -0.1301563 0.11555639999999999 -0.014236600000000002 -0.12020794 0.070485289 -0.013129003 -0.063534613 -0.060068932 0.20159924 0.12560538 0.35961784 0.48612796 0.22319232 0.23449339999999996 0.28242688 -0.13580683 -0.18727892 -0.10947385 -0.20503522 -0.11603394 -0.17146032 -0.15398275 -0.25851518
0.74286369 0.71255677 0.56798877 0.55329732 0.63970949 0.53078 0.52132135 0.48752349999999994 0.42475336 0.29269957 0.4149625 0.36965221 0.15175597 0.18999208 0.20083312 0.097209651 0.037613957999999996 0.11253864 0.033237732 -0.02367321 0.050143982000000004 0.02095634 -0.095082575 -0.039961331 0.039653284 0.030251267999999998 -0.1301563 0.11555639999999999 -0.014236600000000002 -0.12020794 0.070485289 -0.013129003 -0.063534613 -0.060068932 0.20159924 0.12560538 0.35961784 0.48612796 0.22319232 0.23449339999999996 0.28242688 -0.13580683 -0.18727892 -0.10947385 -0.20503522 -0.11603394 -0.17146032 -0.15398275 -0.25851518 -0.08743575199999999
0.71255677 0.56798877 0.55329732 0.63970949 0.53078 0.52132135 0.48752349999999994 0.42475336 0.29269957 0.4149625 0.36965221 0.15175597 0.18999208 0.20083312 0.097209651 0.037613957999999996 0.11253864 0.033237732 -0.02367321 0.050143982000000004 0.02095634 -0.095082575 -0.039961331 0.039653284 0.030251267999999998 -0.1301563 0.11555639999999999 -0.014236600000000002 -0.12020794 0.070485289 -0.013129003 -0.063534613 -0.060068932 0.20159924 0.12560538 0.35961784 0.48612796 0.22319232 0.23449339999999996 0.28242688 -0.13580683 -0.18727892 -0.10947385 -0.20503522 -0.11603394 -0.17146032 -0.15398275 -0.25851518 -0.08743575199999999 -0.068080977
0.56798877 0.55329732 0.63970949 0.53078 0.52132135 0.48752349999999994 0.42475336 0.29269957 0.4149625 0.36965221 0.15175597 0.18999208 0.20083312 0.097209651 0.037613957999999996 0.11253864 0.033237732 -0.02367321 0.050143982000000004 0.02095634 -0.095082575 -0.039961331 0.039653284 0.030251267999999998 -0.1301563 0.11555639999999999 -0.014236600000000002 -0.12020794 0.070485289 -0.013129003 -0.063534613 -0.060068932 0.20159924 0.12560538 0.35961784 0.48612796 0.22319232 0.23449339999999996 0.28242688 -0.13580683 -0.18727892 -0.10947385 -0.20503522 -0.11603394 -0.17146032 -0.15398275 -0.25851518 -0.08743575199999999 -0.068080977 -0.10364012
0.55329732 0.63970949 0.53078 0.52132135 0.48752349999999994 0.42475336 0.29269957 0.4149625 0.36965221 0.15175597 0.18999208 0.20083312 0.097209651 0.037613957999999996 0.11253864 0.033237732 -0.02367321 0.050143982000000004 0.02095634 -0.095082575 -0.039961331 0.039653284 0.030251267999999998 -0.1301563 0.11555639999999999 -0.014236600000000002 -0.12020794 0.070485289 -0.013129003 -0.063534613 -0.060068932 0.20159924 0.12560538 0.35961784 0.48612796 0.22319232 0.23449339999999996 0.28242688 -0.13580683 -0.18727892 -0.10947385 -0.20503522 -0.11603394 -0.17146032 -0.15398275 -0.25851518 -0.08743575199999999 -0.068080977 -0.10364012 -0.10245353
0.63970949 0.53078 0.52132135 0.48752349999999994 0.42475336 0.29269957 0.4149625 0.36965221 0.15175597 0.18999208 0.20083312 0.097209651 0.037613957999999996 0.11253864 0.033237732 -0.02367321 0.050143982000000004 0.02095634 -0.095082575 -0.039961331 0.039653284 0.030251267999999998 -0.1301563 0.11555639999999999 -0.014236600000000002 -0.12020794 0.070485289 -0.013129003 -0.063534613 -0.060068932 0.20159924 0.12560538 0.35961784 0.48612796 0.22319232 0.23449339999999996 0.28242688 -0.13580683 -0.18727892 -0.10947385 -0.20503522 -0.11603394 -0.17146032 -0.15398275 -0.25851518 -0.08743575199999999 -0.068080977 -0.10364012 -0.10245353 -0.021530855
0.53078 0.52132135 0.48752349999999994 0.42475336 0.29269957 0.4149625 0.36965221 0.15175597 0.18999208 0.20083312 0.097209651 0.037613957999999996 0.11253864 0.033237732 -0.02367321 0.050143982000000004 0.02095634 -0.095082575 -0.039961331 0.039653284 0.030251267999999998 -0.1301563 0.11555639999999999 -0.014236600000000002 -0.12020794 0.070485289 -0.013129003 -0.063534613 -0.060068932 0.20159924 0.12560538 0.35961784 0.48612796 0.22319232 0.23449339999999996 0.28242688 -0.13580683 -0.18727892 -0.10947385 -0.20503522 -0.11603394 -0.17146032 -0.15398275 -0.25851518 -0.08743575199999999 -0.068080977 -0.10364012 -0.10245353 -0.021530855 0.14479403
