1.450874 2.5570839 1.9918773 1.486097 1.7354962 1.3383770000000001 0.26275366 -0.11486760000000001 0.1974278 0.42180558 0.58532859 0.62372327 0.45377072 0.54674871 0.54709414 -0.025421027000000002 -0.3992211 -0.36481858 -0.44704226 -0.49995006 -0.51412324 -0.69395009 -0.80428474 -0.71844508 -0.6389764 -0.7243717 -0.88547627 -0.92901518 -0.86621187 -0.87417332 -0.96963206 -1.0134753 -1.0534537 -1.1475499 -1.1570454 -1.1378483999999998 -1.2149863 -1.2789714 -1.3087057 -1.3269767 -1.301223 -1.3009373 -1.3134504999999999 -1.349907 -1.4158959999999998 -1.3828837999999999 -1.4170395 -1.4538743 -1.1305481000000002 -0.8433083
2.5570839 1.9918773 1.486097 1.7354962 1.3383770000000001 0.26275366 -0.11486760000000001 0.1974278 0.42180558 0.58532859 0.62372327 0.45377072 0.54674871 0.54709414 -0.025421027000000002 -0.3992211 -0.36481858 -0.44704226 -0.49995006 -0.51412324 -0.69395009 -0.80428474 -0.71844508 -0.6389764 -0.7243717 -0.88547627 -0.92901518 -0.86621187 -0.87417332 -0.96963206 -1.0134753 -1.0534537 -1.1475499 -1.1570454 -1.1378483999999998 -1.2149863 -1.2789714 -1.3087057 -1.3269767 -1.301223 -1.3009373 -1.3134504999999999 -1.349907 -1.4158959999999998 -1.3828837999999999 -1.4170395 -1.4538743 -1.1305481000000002 -0.8433083 -0.79132007
1.9918773 1.486097 1.7354962 1.3383770000000001 0.26275366 -0.11486760000000001 0.1974278 0.42180558 0.58532859 0.62372327 0.45377072 0.54674871 0.54709414 -0.025421027000000002 -0.3992211 -0.36481858 -0.44704226 -0.49995006 -0.51412324 -0.69395009 -0.80428474 -0.71844508 -0.6389764 -0.7243717 -0.88547627 -0.92901518 -0.86621187 -0.87417332 -0.96963206 -1.0134753 -1.0534537 -1.1475499 -1.1570454 -1.1378483999999998 -1.2149863 -1.2789714 -1.3087057 -1.3269767 -1.301223 -1.3009373 -1.3134504999999999 -1.349907 -1.4158959999999998 -1.3828837999999999 -1.4170395 -1.4538743 -1.1305481000000002 -0.8433083 -0.79132007 -0.51434893
1.486097 1.7354962 1.3383770000000001 0.26275366 -0.11486760000000001 0.1974278 0.42180558 0.58532859 0.62372327 0.45377072 0.54674871 0.54709414 -0.025421027000000002 -0.3992211 -0.36481858 -0.44704226 -0.49995006 -0.51412324 -0.69395009 -0.80428474 -0.71844508 -0.6389764 -0.7243717 -0.88547627 -0.92901518 -0.86621187 -0.87417332 -0.96963206 -1.0134753 -1.0534537 -1.1475499 -1.1570454 -1.1378483999999998 -1.2149863 -1.2789714 -1.3087057 -1.3269767 -1.301223 -1.3009373 -1.3134504999999999 -1.349907 -1.4158959999999998 -1.3828837999999999 -1.4170395 -1.4538743 -1.1305481000000002 -0.8433083 -0.79132007 -0.51434893 -0.22593269
1.7354962 1.3383770000000001 0.26275366 -0.11486760000000001 0.1974278 0.42180558 0.58532859 0.62372327 0.45377072 0.54674871 0.54709414 -0.025421027000000002 -0.3992211 -0.36481858 -0.44704226 -0.49995006 -0.51412324 -0.69395009 -0.80428474 -0.71844508 -0.6389764 -0.7243717 -0.88547627 -0.92901518 -0.86621187 -0.87417332 -0.96963206 -1.0134753 -1.0534537 -1.1475499 -1.1570454 -1.1378483999999998 -1.2149863 -1.2789714 -1.3087057 -1.3269767 -1.301223 -1.3009373 -1.3134504999999999 -1.349907 -1.4158959999999998 -1.3828837999999999 -1.4170395 -1.4538743 -1.1305481000000002 -0.8433083 -0.79132007 -0.51434893 -0.22593269 -0.13825608
1.3383770000000001 0.26275366 -0.11486760000000001 0.1974278 0.42180558 0.58532859 0.62372327 0.45377072 0.54674871 0.54709414 -0.025421027000000002 -0.3992211 -0.36481858 -0.44704226 -0.49995006 -0.51412324 -0.69395009 -0.80428474 -0.71844508 -0.6389764 -0.7243717 -0.88547627 -0.92901518 -0.86621187 -0.87417332 -0.96963206 -1.0134753 -1.0534537 -1.1475499 -1.1570454 -1.1378483999999998 -1.2149863 -1.2789714 -1.3087057 -1.3269767 -1.301223 -1.3009373 -1.3134504999999999 -1.349907 -1.4158959999999998 -1.3828837999999999 -1.4170395 -1.4538743 -1.1305481000000002 -0.8433083 -0.79132007 -0.51434893 -0.22593269 -0.13825608 0.087944204
0.26275366 -0.11486760000000001 0.1974278 0.42180558 0.58532859 0.62372327 0.45377072 0.54674871 0.54709414 -0.025421027000000002 -0.3992211 -0.36481858 -0.44704226 -0.49995006 -0.51412324 -0.69395009 -0.80428474 -0.71844508 -0.6389764 -0.7243717 -0.88547627 -0.92901518 -0.86621187 -0.87417332 -0.96963206 -1.0134753 -1.0534537 -1.1475499 -1.1570454 -1.1378483999999998 -1.2149863 -1.2789714 -1.3087057 -1.3269767 -1.301223 -1.3009373 -1.3134504999999999 -1.349907 -1.4158959999999998 -1.3828837999999999 -1.4170395 -1.4538743 -1.1305481000000002 -0.8433083 -0.79132007 -0.51434893 -0.22593269 -0.13825608 0.087944204 0.36954458
-0.11486760000000001 0.1974278 0.42180558 0.58532859 0.62372327 0.45377072 0.54674871 0.54709414 -0.025421027000000002 -0.3992211 -0.36481858 -0.44704226 -0.49995006 -0.51412324 -0.69395009 -0.80428474 -0.71844508 -0.6389764 -0.7243717 -0.88547627 -0.92901518 -0.86621187 -0.87417332 -0.96963206 -1.0134753 -1.0534537 -1.1475499 -1.1570454 -1.1378483999999998 -1.2149863 -1.2789714 -1.3087057 -1.3269767 -1.301223 -1.3009373 -1.3134504999999999 -1.349907 -1.4158959999999998 -1.3828837999999999 -1.4170395 -1.4538743 -1.1305481000000002 -0.8433083 -0.79132007 -0.51434893 -0.22593269 -0.13825608 0.087944204 0.36954458 0.47582154
0.1974278 0.42180558 0.58532859 0.62372327 0.45377072 0.54674871 0.54709414 -0.025421027000000002 -0.3992211 -0.36481858 -0.44704226 -0.49995006 -0.51412324 -0.69395009 -0.80428474 -0.71844508 -0.6389764 -0.7243717 -0.88547627 -0.92901518 -0.86621187 -0.87417332 -0.96963206 -1.0134753 -1.0534537 -1.1475499 -1.1570454 -1.1378483999999998 -1.2149863 -1.2789714 -1.3087057 -1.3269767 -1.301223 -1.3009373 -1.3134504999999999 -1.349907 -1.4158959999999998 -1.3828837999999999 -1.4170395 -1.4538743 -1.1305481000000002 -0.8433083 -0.79132007 -0.51434893 -0.22593269 -0.13825608 0.087944204 0.36954458 0.47582154 0.40274027
0.42180558 0.58532859 0.62372327 0.45377072 0.54674871 0.54709414 -0.025421027000000002 -0.3992211 -0.36481858 -0.44704226 -0.49995006 -0.51412324 -0.69395009 -0.80428474 -0.71844508 -0.6389764 -0.7243717 -0.88547627 -0.92901518 -0.86621187 -0.87417332 -0.96963206 -1.0134753 -1.0534537 -1.1475499 -1.1570454 -1.1378483999999998 -1.2149863 -1.2789714 -1.3087057 -1.3269767 -1.301223 -1.3009373 -1.3134504999999999 -1.349907 -1.4158959999999998 -1.3828837999999999 -1.4170395 -1.4538743 -1.1305481000000002 -0.8433083 -0.79132007 -0.51434893 -0.22593269 -0.13825608 0.087944204 0.36954458 0.47582154 0.40274027 0.22281146
0.58532859 0.62372327 0.45377072 0.54674871 0.54709414 -0.025421027000000002 -0.3992211 -0.36481858 -0.44704226 -0.49995006 -0.51412324 -0.69395009 -0.80428474 -0.71844508 -0.6389764 -0.7243717 -0.88547627 -0.92901518 -0.86621187 -0.87417332 -0.96963206 -1.0134753 -1.0534537 -1.1475499 -1.1570454 -1.1378483999999998 -1.2149863 -1.2789714 -1.3087057 -1.3269767 -1.301223 -1.3009373 -1.3134504999999999 -1.349907 -1.4158959999999998 -1.3828837999999999 -1.4170395 -1.4538743 -1.1305481000000002 -0.8433083 -0.79132007 -0.51434893 -0.22593269 -0.13825608 0.087944204 0.36954458 0.47582154 0.40274027 0.22281146 0.15902303
0.62372327 0.45377072 0.54674871 0.54709414 -0.025421027000000002 -0.3992211 -0.36481858 -0.44704226 -0.49995006 -0.51412324 -0.69395009 -0.80428474 -0.71844508 -0.6389764 -0.7243717 -0.88547627 -0.92901518 -0.86621187 -0.87417332 -0.96963206 -1.0134753 -1.0534537 -1.1475499 -1.1570454 -1.1378483999999998 -1.2149863 -1.2789714 -1.3087057 -1.3269767 -1.301223 -1.3009373 -1.3134504999999999 -1.349907 -1.4158959999999998 -1.3828837999999999 -1.4170395 -1.4538743 -1.1305481000000002 -0.8433083 -0.79132007 -0.51434893 -0.22593269 -0.13825608 0.087944204 0.36954458 0.47582154 0.40274027 0.22281146 0.15902303 0.23351695
0.45377072 0.54674871 0.54709414 -0.025421027000000002 -0.3992211 -0.36481858 -0.44704226 -0.49995006 -0.51412324 -0.69395009 -0.80428474 -0.71844508 -0.6389764 -0.7243717 -0.88547627 -0.92901518 -0.86621187 -0.87417332 -0.96963206 -1.0134753 -1.0534537 -1.1475499 -1.1570454 -1.1378483999999998 -1.2149863 -1.2789714 -1.3087057 -1.3269767 -1.301223 -1.3009373 -1.3134504999999999 -1.349907 -1.4158959999999998 -1.3828837999999999 -1.4170395 -1.4538743 -1.1305481000000002 -0.8433083 -0.79132007 -0.51434893 -0.22593269 -0.13825608 0.087944204 0.36954458 0.47582154 0.40274027 0.22281146 0.15902303 0.23351695 0.29103782
0.54674871 0.54709414 -0.025421027000000002 -0.3992211 -0.36481858 -0.44704226 -0.49995006 -0.51412324 -0.69395009 -0.80428474 -0.71844508 -0.6389764 -0.7243717 -0.88547627 -0.92901518 -0.86621187 -0.87417332 -0.96963206 -1.0134753 -1.0534537 -1.1475499 -1.1570454 -1.1378483999999998 -1.2149863 -1.2789714 -1.3087057 -1.3269767 -1.301223 -1.3009373 -1.3134504999999999 -1.349907 -1.4158959999999998 -1.3828837999999999 -1.4170395 -1.4538743 -1.1305481000000002 -0.8433083 -0.79132007 -0.51434893 -0.22593269 -0.13825608 0.087944204 0.36954458 0.47582154 0.40274027 0.22281146 0.15902303 0.23351695 0.29103782 0.31631407
0.54709414 -0.025421027000000002 -0.3992211 -0.36481858 -0.44704226 -0.49995006 -0.51412324 -0.69395009 -0.80428474 -0.71844508 -0.6389764 -0.7243717 -0.88547627 -0.92901518 -0.86621187 -0.87417332 -0.96963206 -1.0134753 -1.0534537 -1.1475499 -1.1570454 -1.1378483999999998 -1.2149863 -1.2789714 -1.3087057 -1.3269767 -1.301223 -1.3009373 -1.3134504999999999 -1.349907 -1.4158959999999998 -1.3828837999999999 -1.4170395 -1.4538743 -1.1305481000000002 -0.8433083 -0.79132007 -0.51434893 -0.22593269 -0.13825608 0.087944204 0.36954458 0.47582154 0.40274027 0.22281146 0.15902303 0.23351695 0.29103782 0.31631407 0.26956682
-0.025421027000000002 -0.3992211 -0.36481858 -0.44704226 -0.49995006 -0.51412324 -0.69395009 -0.80428474 -0.71844508 -0.6389764 -0.7243717 -0.88547627 -0.92901518 -0.86621187 -0.87417332 -0.96963206 -1.0134753 -1.0534537 -1.1475499 -1.1570454 -1.1378483999999998 -1.2149863 -1.2789714 -1.3087057 -1.3269767 -1.301223 -1.3009373 -1.3134504999999999 -1.349907 -1.4158959999999998 -1.3828837999999999 -1.4170395 -1.4538743 -1.1305481000000002 -0.8433083 -0.79132007 -0.51434893 -0.22593269 -0.13825608 0.087944204 0.36954458 0.47582154 0.40274027 0.22281146 0.15902303 0.23351695 0.29103782 0.31631407 0.26956682 0.18663139
-0.3992211 -0.36481858 -0.44704226 -0.49995006 -0.51412324 -0.69395009 -0.80428474 -0.71844508 -0.6389764 -0.7243717 -0.88547627 -0.92901518 -0.86621187 -0.87417332 -0.96963206 -1.0134753 -1.0534537 -1.1475499 -1.1570454 -1.1378483999999998 -1.2149863 -1.2789714 -1.3087057 -1.3269767 -1.301223 -1.3009373 -1.3134504999999999 -1.349907 -1.4158959999999998 -1.3828837999999999 -1.4170395 -1.4538743 -1.1305481000000002 -0.8433083 -0.79132007 -0.51434893 -0.22593269 -0.13825608 0.087944204 0.36954458 0.47582154 0.40274027 0.22281146 0.15902303 0.23351695 0.29103782 0.31631407 0.26956682 0.18663139 0.18942324
-0.36481858 -0.44704226 -0.49995006 -0.51412324 -0.69395009 -0.80428474 -0.71844508 -0.6389764 -0.7243717 -0.88547627 -0.92901518 -0.86621187 -0.87417332 -0.96963206 -1.0134753 -1.0534537 -1.1475499 -1.1570454 -1.1378483999999998 -1.2149863 -1.2789714 -1.3087057 -1.3269767 -1.301223 -1.3009373 -1.3134504999999999 -1.349907 -1.4158959999999998 -1.3828837999999999 -1.4170395 -1.4538743 -1.1305481000000002 -0.8433083 -0.79132007 -0.51434893 -0.22593269 -0.13825608 0.087944204 0.36954458 0.47582154 0.40274027 0.22281146 0.15902303 0.23351695 0.29103782 0.31631407 0.26956682 0.18663139 0.18942324 0.20436166
-0.44704226 -0.49995006 -0.51412324 -0.69395009 -0.80428474 -0.71844508 -0.6389764 -0.7243717 -0.88547627 -0.92901518 -0.86621187 -0.87417332 -0.96963206 -1.0134753 -1.0534537 -1.1475499 -1.1570454 -1.1378483999999998 -1.2149863 -1.2789714 -1.3087057 -1.3269767 -1.301223 -1.3009373 -1.3134504999999999 -1.349907 -1.4158959999999998 -1.3828837999999999 -1.4170395 -1.4538743 -1.1305481000000002 -0.8433083 -0.79132007 -0.51434893 -0.22593269 -0.13825608 0.087944204 0.36954458 0.47582154 0.40274027 0.22281146 0.15902303 0.23351695 0.29103782 0.31631407 0.26956682 0.18663139 0.18942324 0.20436166 0.15762555
-0.49995006 -0.51412324 -0.69395009 -0.80428474 -0.71844508 -0.6389764 -0.7243717 -0.88547627 -0.92901518 -0.86621187 -0.87417332 -0.96963206 -1.0134753 -1.0534537 -1.1475499 -1.1570454 -1.1378483999999998 -1.2149863 -1.2789714 -1.3087057 -1.3269767 -1.301223 -1.3009373 -1.3134504999999999 -1.349907 -1.4158959999999998 -1.3828837999999999 -1.4170395 -1.4538743 -1.1305481000000002 -0.8433083 -0.79132007 -0.51434893 -0.22593269 -0.13825608 0.087944204 0.36954458 0.47582154 0.40274027 0.22281146 0.15902303 0.23351695 0.29103782 0.31631407 0.26956682 0.18663139 0.18942324 0.20436166 0.15762555 0.11163348
-0.51412324 -0.69395009 -0.80428474 -0.71844508 -0.6389764 -0.7243717 -0.88547627 -0.92901518 -0.86621187 -0.87417332 -0.96963206 -1.0134753 -1.0534537 -1.1475499 -1.1570454 -1.1378483999999998 -1.2149863 -1.2789714 -1.3087057 -1.3269767 -1.301223 -1.3009373 -1.3134504999999999 -1.349907 -1.4158959999999998 -1.3828837999999999 -1.4170395 -1.4538743 -1.1305481000000002 -0.8433083 -0.79132007 -0.51434893 -0.22593269 -0.13825608 0.087944204 0.36954458 0.47582154 0.40274027 0.22281146 0.15902303 0.23351695 0.29103782 0.31631407 0.26956682 0.18663139 0.18942324 0.20436166 0.15762555 0.11163348 0.07806129
-0.69395009 -0.80428474 -0.71844508 -0.6389764 -0.7243717 -0.88547627 -0.92901518 -0.86621187 -0.87417332 -0.96963206 -1.0134753 -1.0534537 -1.1475499 -1.1570454 -1.1378483999999998 -1.2149863 -1.2789714 -1.3087057 -1.3269767 -1.301223 -1.3009373 -1.3134504999999999 -1.349907 -1.4158959999999998 -1.3828837999999999 -1.4170395 -1.4538743 -1.1305481000000002 -0.8433083 -0.79132007 -0.51434893 -0.22593269 -0.13825608 0.087944204 0.36954458 0.47582154 0.40274027 0.22281146 0.15902303 0.23351695 0.29103782 0.31631407 0.26956682 0.18663139 0.18942324 0.20436166 0.15762555 0.11163348 0.07806129 0.037505075
-0.80428474 -0.71844508 -0.6389764 -0.7243717 -0.88547627 -0.92901518 -0.86621187 -0.87417332 -0.96963206 -1.0134753 -1.0534537 -1.1475499 -1.1570454 -1.1378483999999998 -1.2149863 -1.2789714 -1.3087057 -1.3269767 -1.301223 -1.3009373 -1.3134504999999999 -1.349907 -1.4158959999999998 -1.3828837999999999 -1.4170395 -1.4538743 -1.1305481000000002 -0.8433083 -0.79132007 -0.51434893 -0.22593269 -0.13825608 0.087944204 0.36954458 0.47582154 0.40274027 0.22281146 0.15902303 0.23351695 0.29103782 0.31631407 0.26956682 0.18663139 0.18942324 0.20436166 0.15762555 0.11163348 0.07806129 0.037505075 -0.008191192
-0.71844508 -0.6389764 -0.7243717 -0.88547627 -0.92901518 -0.86621187 -0.87417332 -0.96963206 -1.0134753 -1.0534537 -1.1475499 -1.1570454 -1.1378483999999998 -1.2149863 -1.2789714 -1.3087057 -1.3269767 -1.301223 -1.3009373 -1.3134504999999999 -1.349907 -1.4158959999999998 -1.3828837999999999 -1.4170395 -1.4538743 -1.1305481000000002 -0.8433083 -0.79132007 -0.51434893 -0.22593269 -0.13825608 0.087944204 0.36954458 0.47582154 0.40274027 0.22281146 0.15902303 0.23351695 0.29103782 0.31631407 0.26956682 0.18663139 0.18942324 0.20436166 0.15762555 0.11163348 0.07806129 0.037505075 -0.008191192 0.010155106
-0.6389764 -0.7243717 -0.88547627 -0.92901518 -0.86621187 -0.87417332 -0.96963206 -1.0134753 -1.0534537 -1.1475499 -1.1570454 -1.1378483999999998 -1.2149863 -1.2789714 -1.3087057 -1.3269767 -1.301223 -1.3009373 -1.3134504999999999 -1.349907 -1.4158959999999998 -1.3828837999999999 -1.4170395 -1.4538743 -1.1305481000000002 -0.8433083 -0.79132007 -0.51434893 -0.22593269 -0.13825608 0.087944204 0.36954458 0.47582154 0.40274027 0.22281146 0.15902303 0.23351695 0.29103782 0.31631407 0.26956682 0.18663139 0.18942324 0.20436166 0.15762555 0.11163348 0.07806129 0.037505075 -0.008191192 0.010155106 0.093521958
-0.7243717 -0.88547627 -0.92901518 -0.86621187 -0.87417332 -0.96963206 -1.0134753 -1.0534537 -1.1475499 -1.1570454 -1.1378483999999998 -1.2149863 -1.2789714 -1.3087057 -1.3269767 -1.301223 -1.3009373 -1.3134504999999999 -1.349907 -1.4158959999999998 -1.3828837999999999 -1.4170395 -1.4538743 -1.1305481000000002 -0.8433083 -0.79132007 -0.51434893 -0.22593269 -0.13825608 0.087944204 0.36954458 0.47582154 0.40274027 0.22281146 0.15902303 0.23351695 0.29103782 0.31631407 0.26956682 0.18663139 0.18942324 0.20436166 0.15762555 0.11163348 0.07806129 0.037505075 -0.008191192 0.010155106 0.093521958 0.042215749000000004
-0.88547627 -0.92901518 -0.86621187 -0.87417332 -0.96963206 -1.0134753 -1.0534537 -1.1475499 -1.1570454 -1.1378483999999998 -1.2149863 -1.2789714 -1.3087057 -1.3269767 -1.301223 -1.3009373 -1.3134504999999999 -1.349907 -1.4158959999999998 -1.3828837999999999 -1.4170395 -1.4538743 -1.1305481000000002 -0.8433083 -0.79132007 -0.51434893 -0.22593269 -0.13825608 0.087944204 0.36954458 0.47582154 0.40274027 0.22281146 0.15902303 0.23351695 0.29103782 0.31631407 0.26956682 0.18663139 0.18942324 0.20436166 0.15762555 0.11163348 0.07806129 0.037505075 -0.008191192 0.010155106 0.093521958 0.042215749000000004 -0.056904462
-0.92901518 -0.86621187 -0.87417332 -0.96963206 -1.0134753 -1.0534537 -1.1475499 -1.1570454 -1.1378483999999998 -1.2149863 -1.2789714 -1.3087057 -1.3269767 -1.301223 -1.3009373 -1.3134504999999999 -1.349907 -1.4158959999999998 -1.3828837999999999 -1.4170395 -1.4538743 -1.1305481000000002 -0.8433083 -0.79132007 -0.51434893 -0.22593269 -0.13825608 0.087944204 0.36954458 0.47582154 0.40274027 0.22281146 0.15902303 0.23351695 0.29103782 0.31631407 0.26956682 0.18663139 0.18942324 0.20436166 0.15762555 0.11163348 0.07806129 0.037505075 -0.008191192 0.010155106 0.093521958 0.042215749000000004 -0.056904462 0.043026546
-0.86621187 -0.87417332 -0.96963206 -1.0134753 -1.0534537 -1.1475499 -1.1570454 -1.1378483999999998 -1.2149863 -1.2789714 -1.3087057 -1.3269767 -1.301223 -1.3009373 -1.3134504999999999 -1.349907 -1.4158959999999998 -1.3828837999999999 -1.4170395 -1.4538743 -1.1305481000000002 -0.8433083 -0.79132007 -0.51434893 -0.22593269 -0.13825608 0.087944204 0.36954458 0.47582154 0.40274027 0.22281146 0.15902303 0.23351695 0.29103782 0.31631407 0.26956682 0.18663139 0.18942324 0.20436166 0.15762555 0.11163348 0.07806129 0.037505075 -0.008191192 0.010155106 0.093521958 0.042215749000000004 -0.056904462 0.043026546 0.15674891
-0.87417332 -0.96963206 -1.0134753 -1.0534537 -1.1475499 -1.1570454 -1.1378483999999998 -1.2149863 -1.2789714 -1.3087057 -1.3269767 -1.301223 -1.3009373 -1.3134504999999999 -1.349907 -1.4158959999999998 -1.3828837999999999 -1.4170395 -1.4538743 -1.1305481000000002 -0.8433083 -0.79132007 -0.51434893 -0.22593269 -0.13825608 0.087944204 0.36954458 0.47582154 0.40274027 0.22281146 0.15902303 0.23351695 0.29103782 0.31631407 0.26956682 0.18663139 0.18942324 0.20436166 0.15762555 0.11163348 0.07806129 0.037505075 -0.008191192 0.010155106 0.093521958 0.042215749000000004 -0.056904462 0.043026546 0.15674891 0.15283328
-0.96963206 -1.0134753 -1.0534537 -1.1475499 -1.1570454 -1.1378483999999998 -1.2149863 -1.2789714 -1.3087057 -1.3269767 -1.301223 -1.3009373 -1.3134504999999999 -1.349907 -1.4158959999999998 -1.3828837999999999 -1.4170395 -1.4538743 -1.1305481000000002 -0.8433083 -0.79132007 -0.51434893 -0.22593269 -0.13825608 0.087944204 0.36954458 0.47582154 0.40274027 0.22281146 0.15902303 0.23351695 0.29103782 0.31631407 0.26956682 0.18663139 0.18942324 0.20436166 0.15762555 0.11163348 0.07806129 0.037505075 -0.008191192 0.010155106 0.093521958 0.042215749000000004 -0.056904462 0.043026546 0.15674891 0.15283328 0.1448568
-1.0134753 -1.0534537 -1.1475499 -1.1570454 -1.1378483999999998 -1.2149863 -1.2789714 -1.3087057 -1.3269767 -1.301223 -1.3009373 -1.3134504999999999 -1.349907 -1.4158959999999998 -1.3828837999999999 -1.4170395 -1.4538743 -1.1305481000000002 -0.8433083 -0.79132007 -0.51434893 -0.22593269 -0.13825608 0.087944204 0.36954458 0.47582154 0.40274027 0.22281146 0.15902303 0.23351695 0.29103782 0.31631407 0.26956682 0.18663139 0.18942324 0.20436166 0.15762555 0.11163348 0.07806129 0.037505075 -0.008191192 0.010155106 0.093521958 0.042215749000000004 -0.056904462 0.043026546 0.15674891 0.15283328 0.1448568 0.10450183
-1.0534537 -1.1475499 -1.1570454 -1.1378483999999998 -1.2149863 -1.2789714 -1.3087057 -1.3269767 -1.301223 -1.3009373 -1.3134504999999999 -1.349907 -1.4158959999999998 -1.3828837999999999 -1.4170395 -1.4538743 -1.1305481000000002 -0.8433083 -0.79132007 -0.51434893 -0.22593269 -0.13825608 0.087944204 0.36954458 0.47582154 0.40274027 0.22281146 0.15902303 0.23351695 0.29103782 0.31631407 0.26956682 0.18663139 0.18942324 0.20436166 0.15762555 0.11163348 0.07806129 0.037505075 -0.008191192 0.010155106 0.093521958 0.042215749000000004 -0.056904462 0.043026546 0.15674891 0.15283328 0.1448568 0.10450183 0.12606128
-1.1475499 -1.1570454 -1.1378483999999998 -1.2149863 -1.2789714 -1.3087057 -1.3269767 -1.301223 -1.3009373 -1.3134504999999999 -1.349907 -1.4158959999999998 -1.3828837999999999 -1.4170395 -1.4538743 -1.1305481000000002 -0.8433083 -0.79132007 -0.51434893 -0.22593269 -0.13825608 0.087944204 0.36954458 0.47582154 0.40274027 0.22281146 0.15902303 0.23351695 0.29103782 0.31631407 0.26956682 0.18663139 0.18942324 0.20436166 0.15762555 0.11163348 0.07806129 0.037505075 -0.008191192 0.010155106 0.093521958 0.042215749000000004 -0.056904462 0.043026546 0.15674891 0.15283328 0.1448568 0.10450183 0.12606128 0.20115557
-1.1570454 -1.1378483999999998 -1.2149863 -1.2789714 -1.3087057 -1.3269767 -1.301223 -1.3009373 -1.3134504999999999 -1.349907 -1.4158959999999998 -1.3828837999999999 -1.4170395 -1.4538743 -1.1305481000000002 -0.8433083 -0.79132007 -0.51434893 -0.22593269 -0.13825608 0.087944204 0.36954458 0.47582154 0.40274027 0.22281146 0.15902303 0.23351695 0.29103782 0.31631407 0.26956682 0.18663139 0.18942324 0.20436166 0.15762555 0.11163348 0.07806129 0.037505075 -0.008191192 0.010155106 0.093521958 0.042215749000000004 -0.056904462 0.043026546 0.15674891 0.15283328 0.1448568 0.10450183 0.12606128 0.20115557 0.17509916
-1.1378483999999998 -1.2149863 -1.2789714 -1.3087057 -1.3269767 -1.301223 -1.3009373 -1.3134504999999999 -1.349907 -1.4158959999999998 -1.3828837999999999 -1.4170395 -1.4538743 -1.1305481000000002 -0.8433083 -0.79132007 -0.51434893 -0.22593269 -0.13825608 0.087944204 0.36954458 0.47582154 0.40274027 0.22281146 0.15902303 0.23351695 0.29103782 0.31631407 0.26956682 0.18663139 0.18942324 0.20436166 0.15762555 0.11163348 0.07806129 0.037505075 -0.008191192 0.010155106 0.093521958 0.042215749000000004 -0.056904462 0.043026546 0.15674891 0.15283328 0.1448568 0.10450183 0.12606128 0.20115557 0.17509916 0.1912545
-1.2149863 -1.2789714 -1.3087057 -1.3269767 -1.301223 -1.3009373 -1.3134504999999999 -1.349907 -1.4158959999999998 -1.3828837999999999 -1.4170395 -1.4538743 -1.1305481000000002 -0.8433083 -0.79132007 -0.51434893 -0.22593269 -0.13825608 0.087944204 0.36954458 0.47582154 0.40274027 0.22281146 0.15902303 0.23351695 0.29103782 0.31631407 0.26956682 0.18663139 0.18942324 0.20436166 0.15762555 0.11163348 0.07806129 0.037505075 -0.008191192 0.010155106 0.093521958 0.042215749000000004 -0.056904462 0.043026546 0.15674891 0.15283328 0.1448568 0.10450183 0.12606128 0.20115557 0.17509916 0.1912545 0.21765326
-1.2789714 -1.3087057 -1.3269767 -1.301223 -1.3009373 -1.3134504999999999 -1.349907 -1.4158959999999998 -1.3828837999999999 -1.4170395 -1.4538743 -1.1305481000000002 -0.8433083 -0.79132007 -0.51434893 -0.22593269 -0.13825608 0.087944204 0.36954458 0.47582154 0.40274027 0.22281146 0.15902303 0.23351695 0.29103782 0.31631407 0.26956682 0.18663139 0.18942324 0.20436166 0.15762555 0.11163348 0.07806129 0.037505075 -0.008191192 0.010155106 0.093521958 0.042215749000000004 -0.056904462 0.043026546 0.15674891 0.15283328 0.1448568 0.10450183 0.12606128 0.20115557 0.17509916 0.1912545 0.21765326 0.26097232
-1.3087057 -1.3269767 -1.301223 -1.3009373 -1.3134504999999999 -1.349907 -1.4158959999999998 -1.3828837999999999 -1.4170395 -1.4538743 -1.1305481000000002 -0.8433083 -0.79132007 -0.51434893 -0.22593269 -0.13825608 0.087944204 0.36954458 0.47582154 0.40274027 0.22281146 0.15902303 0.23351695 0.29103782 0.31631407 0.26956682 0.18663139 0.18942324 0.20436166 0.15762555 0.11163348 0.07806129 0.037505075 -0.008191192 0.010155106 0.093521958 0.042215749000000004 -0.056904462 0.043026546 0.15674891 0.15283328 0.1448568 0.10450183 0.12606128 0.20115557 0.17509916 0.1912545 0.21765326 0.26097232 0.58207622
-1.3269767 -1.301223 -1.3009373 -1.3134504999999999 -1.349907 -1.4158959999999998 -1.3828837999999999 -1.4170395 -1.4538743 -1.1305481000000002 -0.8433083 -0.79132007 -0.51434893 -0.22593269 -0.13825608 0.087944204 0.36954458 0.47582154 0.40274027 0.22281146 0.15902303 0.23351695 0.29103782 0.31631407 0.26956682 0.18663139 0.18942324 0.20436166 0.15762555 0.11163348 0.07806129 0.037505075 -0.008191192 0.010155106 0.093521958 0.042215749000000004 -0.056904462 0.043026546 0.15674891 0.15283328 0.1448568 0.10450183 0.12606128 0.20115557 0.17509916 0.1912545 0.21765326 0.26097232 0.58207622 1.084883
-1.301223 -1.3009373 -1.3134504999999999 -1.349907 -1.4158959999999998 -1.3828837999999999 -1.4170395 -1.4538743 -1.1305481000000002 -0.8433083 -0.79132007 -0.51434893 -0.22593269 -0.13825608 0.087944204 0.36954458 0.47582154 0.40274027 0.22281146 0.15902303 0.23351695 0.29103782 0.31631407 0.26956682 0.18663139 0.18942324 0.20436166 0.15762555 0.11163348 0.07806129 0.037505075 -0.008191192 0.010155106 0.093521958 0.042215749000000004 -0.056904462 0.043026546 0.15674891 0.15283328 0.1448568 0.10450183 0.12606128 0.20115557 0.17509916 0.1912545 0.21765326 0.26097232 0.58207622 1.084883 1.8521323
-1.3009373 -1.3134504999999999 -1.349907 -1.4158959999999998 -1.3828837999999999 -1.4170395 -1.4538743 -1.1305481000000002 -0.8433083 -0.79132007 -0.51434893 -0.22593269 -0.13825608 0.087944204 0.36954458 0.47582154 0.40274027 0.22281146 0.15902303 0.23351695 0.29103782 0.31631407 0.26956682 0.18663139 0.18942324 0.20436166 0.15762555 0.11163348 0.07806129 0.037505075 -0.008191192 0.010155106 0.093521958 0.042215749000000004 -0.056904462 0.043026546 0.15674891 0.15283328 0.1448568 0.10450183 0.12606128 0.20115557 0.17509916 0.1912545 0.21765326 0.26097232 0.58207622 1.084883 1.8521323 2.7458885
-1.3134504999999999 -1.349907 -1.4158959999999998 -1.3828837999999999 -1.4170395 -1.4538743 -1.1305481000000002 -0.8433083 -0.79132007 -0.51434893 -0.22593269 -0.13825608 0.087944204 0.36954458 0.47582154 0.40274027 0.22281146 0.15902303 0.23351695 0.29103782 0.31631407 0.26956682 0.18663139 0.18942324 0.20436166 0.15762555 0.11163348 0.07806129 0.037505075 -0.008191192 0.010155106 0.093521958 0.042215749000000004 -0.056904462 0.043026546 0.15674891 0.15283328 0.1448568 0.10450183 0.12606128 0.20115557 0.17509916 0.1912545 0.21765326 0.26097232 0.58207622 1.084883 1.8521323 2.7458885 2.8192039
-1.349907 -1.4158959999999998 -1.3828837999999999 -1.4170395 -1.4538743 -1.1305481000000002 -0.8433083 -0.79132007 -0.51434893 -0.22593269 -0.13825608 0.087944204 0.36954458 0.47582154 0.40274027 0.22281146 0.15902303 0.23351695 0.29103782 0.31631407 0.26956682 0.18663139 0.18942324 0.20436166 0.15762555 0.11163348 0.07806129 0.037505075 -0.008191192 0.010155106 0.093521958 0.042215749000000004 -0.056904462 0.043026546 0.15674891 0.15283328 0.1448568 0.10450183 0.12606128 0.20115557 0.17509916 0.1912545 0.21765326 0.26097232 0.58207622 1.084883 1.8521323 2.7458885 2.8192039 2.2613343999999995
-1.4158959999999998 -1.3828837999999999 -1.4170395 -1.4538743 -1.1305481000000002 -0.8433083 -0.79132007 -0.51434893 -0.22593269 -0.13825608 0.087944204 0.36954458 0.47582154 0.40274027 0.22281146 0.15902303 0.23351695 0.29103782 0.31631407 0.26956682 0.18663139 0.18942324 0.20436166 0.15762555 0.11163348 0.07806129 0.037505075 -0.008191192 0.010155106 0.093521958 0.042215749000000004 -0.056904462 0.043026546 0.15674891 0.15283328 0.1448568 0.10450183 0.12606128 0.20115557 0.17509916 0.1912545 0.21765326 0.26097232 0.58207622 1.084883 1.8521323 2.7458885 2.8192039 2.2613343999999995 2.1453773999999997
-1.3828837999999999 -1.4170395 -1.4538743 -1.1305481000000002 -0.8433083 -0.79132007 -0.51434893 -0.22593269 -0.13825608 0.087944204 0.36954458 0.47582154 0.40274027 0.22281146 0.15902303 0.23351695 0.29103782 0.31631407 0.26956682 0.18663139 0.18942324 0.20436166 0.15762555 0.11163348 0.07806129 0.037505075 -0.008191192 0.010155106 0.093521958 0.042215749000000004 -0.056904462 0.043026546 0.15674891 0.15283328 0.1448568 0.10450183 0.12606128 0.20115557 0.17509916 0.1912545 0.21765326 0.26097232 0.58207622 1.084883 1.8521323 2.7458885 2.8192039 2.2613343999999995 2.1453773999999997 1.8595552
-1.4170395 -1.4538743 -1.1305481000000002 -0.8433083 -0.79132007 -0.51434893 -0.22593269 -0.13825608 0.087944204 0.36954458 0.47582154 0.40274027 0.22281146 0.15902303 0.23351695 0.29103782 0.31631407 0.26956682 0.18663139 0.18942324 0.20436166 0.15762555 0.11163348 0.07806129 0.037505075 -0.008191192 0.010155106 0.093521958 0.042215749000000004 -0.056904462 0.043026546 0.15674891 0.15283328 0.1448568 0.10450183 0.12606128 0.20115557 0.17509916 0.1912545 0.21765326 0.26097232 0.58207622 1.084883 1.8521323 2.7458885 2.8192039 2.2613343999999995 2.1453773999999997 1.8595552 0.49048734
