0.99311088 2.7048435 3.4733421 2.2126661 0.45329533 0.047793342 0.95955986 1.1930596000000002 1.007462 0.99132093 0.57820045 -0.019752725 -0.48965442 -0.44228661 -0.58495969 -0.44435779999999997 -0.36681751 -0.40379975 -0.61565955 -0.83379226 -1.025003 -1.201268 -1.3762815000000002 -1.4132188 -1.4878131 -1.7930976000000003 -1.8546667000000001 -2.0736805 -2.0869331 -2.0074234 -2.1524661 -2.0920997 -2.0311639 -1.8833278999999998 -1.5725866000000002 -1.3058618999999998 -1.002047 -0.53302166 -0.10067188 0.10165556 0.42403295 0.65213763 0.77169086 0.91439267 0.80432214 0.80127314 0.69083304 0.61021074 0.7091267 0.65098901
2.7048435 3.4733421 2.2126661 0.45329533 0.047793342 0.95955986 1.1930596000000002 1.007462 0.99132093 0.57820045 -0.019752725 -0.48965442 -0.44228661 -0.58495969 -0.44435779999999997 -0.36681751 -0.40379975 -0.61565955 -0.83379226 -1.025003 -1.201268 -1.3762815000000002 -1.4132188 -1.4878131 -1.7930976000000003 -1.8546667000000001 -2.0736805 -2.0869331 -2.0074234 -2.1524661 -2.0920997 -2.0311639 -1.8833278999999998 -1.5725866000000002 -1.3058618999999998 -1.002047 -0.53302166 -0.10067188 0.10165556 0.42403295 0.65213763 0.77169086 0.91439267 0.80432214 0.80127314 0.69083304 0.61021074 0.7091267 0.65098901 0.62584063
3.4733421 2.2126661 0.45329533 0.047793342 0.95955986 1.1930596000000002 1.007462 0.99132093 0.57820045 -0.019752725 -0.48965442 -0.44228661 -0.58495969 -0.44435779999999997 -0.36681751 -0.40379975 -0.61565955 -0.83379226 -1.025003 -1.201268 -1.3762815000000002 -1.4132188 -1.4878131 -1.7930976000000003 -1.8546667000000001 -2.0736805 -2.0869331 -2.0074234 -2.1524661 -2.0920997 -2.0311639 -1.8833278999999998 -1.5725866000000002 -1.3058618999999998 -1.002047 -0.53302166 -0.10067188 0.10165556 0.42403295 0.65213763 0.77169086 0.91439267 0.80432214 0.80127314 0.69083304 0.61021074 0.7091267 0.65098901 0.62584063 0.6350268
2.2126661 0.45329533 0.047793342 0.95955986 1.1930596000000002 1.007462 0.99132093 0.57820045 -0.019752725 -0.48965442 -0.44228661 -0.58495969 -0.44435779999999997 -0.36681751 -0.40379975 -0.61565955 -0.83379226 -1.025003 -1.201268 -1.3762815000000002 -1.4132188 -1.4878131 -1.7930976000000003 -1.8546667000000001 -2.0736805 -2.0869331 -2.0074234 -2.1524661 -2.0920997 -2.0311639 -1.8833278999999998 -1.5725866000000002 -1.3058618999999998 -1.002047 -0.53302166 -0.10067188 0.10165556 0.42403295 0.65213763 0.77169086 0.91439267 0.80432214 0.80127314 0.69083304 0.61021074 0.7091267 0.65098901 0.62584063 0.6350268 0.62785003
0.45329533 0.047793342 0.95955986 1.1930596000000002 1.007462 0.99132093 0.57820045 -0.019752725 -0.48965442 -0.44228661 -0.58495969 -0.44435779999999997 -0.36681751 -0.40379975 -0.61565955 -0.83379226 -1.025003 -1.201268 -1.3762815000000002 -1.4132188 -1.4878131 -1.7930976000000003 -1.8546667000000001 -2.0736805 -2.0869331 -2.0074234 -2.1524661 -2.0920997 -2.0311639 -1.8833278999999998 -1.5725866000000002 -1.3058618999999998 -1.002047 -0.53302166 -0.10067188 0.10165556 0.42403295 0.65213763 0.77169086 0.91439267 0.80432214 0.80127314 0.69083304 0.61021074 0.7091267 0.65098901 0.62584063 0.6350268 0.62785003 0.67701916
0.047793342 0.95955986 1.1930596000000002 1.007462 0.99132093 0.57820045 -0.019752725 -0.48965442 -0.44228661 -0.58495969 -0.44435779999999997 -0.36681751 -0.40379975 -0.61565955 -0.83379226 -1.025003 -1.201268 -1.3762815000000002 -1.4132188 -1.4878131 -1.7930976000000003 -1.8546667000000001 -2.0736805 -2.0869331 -2.0074234 -2.1524661 -2.0920997 -2.0311639 -1.8833278999999998 -1.5725866000000002 -1.3058618999999998 -1.002047 -0.53302166 -0.10067188 0.10165556 0.42403295 0.65213763 0.77169086 0.91439267 0.80432214 0.80127314 0.69083304 0.61021074 0.7091267 0.65098901 0.62584063 0.6350268 0.62785003 0.67701916 0.74058694
0.95955986 1.1930596000000002 1.007462 0.99132093 0.57820045 -0.019752725 -0.48965442 -0.44228661 -0.58495969 -0.44435779999999997 -0.36681751 -0.40379975 -0.61565955 -0.83379226 -1.025003 -1.201268 -1.3762815000000002 -1.4132188 -1.4878131 -1.7930976000000003 -1.8546667000000001 -2.0736805 -2.0869331 -2.0074234 -2.1524661 -2.0920997 -2.0311639 -1.8833278999999998 -1.5725866000000002 -1.3058618999999998 -1.002047 -0.53302166 -0.10067188 0.10165556 0.42403295 0.65213763 0.77169086 0.91439267 0.80432214 0.80127314 0.69083304 0.61021074 0.7091267 0.65098901 0.62584063 0.6350268 0.62785003 0.67701916 0.74058694 0.76568509
1.1930596000000002 1.007462 0.99132093 0.57820045 -0.019752725 -0.48965442 -0.44228661 -0.58495969 -0.44435779999999997 -0.36681751 -0.40379975 -0.61565955 -0.83379226 -1.025003 -1.201268 -1.3762815000000002 -1.4132188 -1.4878131 -1.7930976000000003 -1.8546667000000001 -2.0736805 -2.0869331 -2.0074234 -2.1524661 -2.0920997 -2.0311639 -1.8833278999999998 -1.5725866000000002 -1.3058618999999998 -1.002047 -0.53302166 -0.10067188 0.10165556 0.42403295 0.65213763 0.77169086 0.91439267 0.80432214 0.80127314 0.69083304 0.61021074 0.7091267 0.65098901 0.62584063 0.6350268 0.62785003 0.67701916 0.74058694 0.76568509 0.75747855
1.007462 0.99132093 0.57820045 -0.019752725 -0.48965442 -0.44228661 -0.58495969 -0.44435779999999997 -0.36681751 -0.40379975 -0.61565955 -0.83379226 -1.025003 -1.201268 -1.3762815000000002 -1.4132188 -1.4878131 -1.7930976000000003 -1.8546667000000001 -2.0736805 -2.0869331 -2.0074234 -2.1524661 -2.0920997 -2.0311639 -1.8833278999999998 -1.5725866000000002 -1.3058618999999998 -1.002047 -0.53302166 -0.10067188 0.10165556 0.42403295 0.65213763 0.77169086 0.91439267 0.80432214 0.80127314 0.69083304 0.61021074 0.7091267 0.65098901 0.62584063 0.6350268 0.62785003 0.67701916 0.74058694 0.76568509 0.75747855 0.63137099
0.99132093 0.57820045 -0.019752725 -0.48965442 -0.44228661 -0.58495969 -0.44435779999999997 -0.36681751 -0.40379975 -0.61565955 -0.83379226 -1.025003 -1.201268 -1.3762815000000002 -1.4132188 -1.4878131 -1.7930976000000003 -1.8546667000000001 -2.0736805 -2.0869331 -2.0074234 -2.1524661 -2.0920997 -2.0311639 -1.8833278999999998 -1.5725866000000002 -1.3058618999999998 -1.002047 -0.53302166 -0.10067188 0.10165556 0.42403295 0.65213763 0.77169086 0.91439267 0.80432214 0.80127314 0.69083304 0.61021074 0.7091267 0.65098901 0.62584063 0.6350268 0.62785003 0.67701916 0.74058694 0.76568509 0.75747855 0.63137099 0.5503832
0.57820045 -0.019752725 -0.48965442 -0.44228661 -0.58495969 -0.44435779999999997 -0.36681751 -0.40379975 -0.61565955 -0.83379226 -1.025003 -1.201268 -1.3762815000000002 -1.4132188 -1.4878131 -1.7930976000000003 -1.8546667000000001 -2.0736805 -2.0869331 -2.0074234 -2.1524661 -2.0920997 -2.0311639 -1.8833278999999998 -1.5725866000000002 -1.3058618999999998 -1.002047 -0.53302166 -0.10067188 0.10165556 0.42403295 0.65213763 0.77169086 0.91439267 0.80432214 0.80127314 0.69083304 0.61021074 0.7091267 0.65098901 0.62584063 0.6350268 0.62785003 0.67701916 0.74058694 0.76568509 0.75747855 0.63137099 0.5503832 0.57019334
-0.019752725 -0.48965442 -0.44228661 -0.58495969 -0.44435779999999997 -0.36681751 -0.40379975 -0.61565955 -0.83379226 -1.025003 -1.201268 -1.3762815000000002 -1.4132188 -1.4878131 -1.7930976000000003 -1.8546667000000001 -2.0736805 -2.0869331 -2.0074234 -2.1524661 -2.0920997 -2.0311639 -1.8833278999999998 -1.5725866000000002 -1.3058618999999998 -1.002047 -0.53302166 -0.10067188 0.10165556 0.42403295 0.65213763 0.77169086 0.91439267 0.80432214 0.80127314 0.69083304 0.61021074 0.7091267 0.65098901 0.62584063 0.6350268 0.62785003 0.67701916 0.74058694 0.76568509 0.75747855 0.63137099 0.5503832 0.57019334 0.47303239
-0.48965442 -0.44228661 -0.58495969 -0.44435779999999997 -0.36681751 -0.40379975 -0.61565955 -0.83379226 -1.025003 -1.201268 -1.3762815000000002 -1.4132188 -1.4878131 -1.7930976000000003 -1.8546667000000001 -2.0736805 -2.0869331 -2.0074234 -2.1524661 -2.0920997 -2.0311639 -1.8833278999999998 -1.5725866000000002 -1.3058618999999998 -1.002047 -0.53302166 -0.10067188 0.10165556 0.42403295 0.65213763 0.77169086 0.91439267 0.80432214 0.80127314 0.69083304 0.61021074 0.7091267 0.65098901 0.62584063 0.6350268 0.62785003 0.67701916 0.74058694 0.76568509 0.75747855 0.63137099 0.5503832 0.57019334 0.47303239 0.38274519
-0.44228661 -0.58495969 -0.44435779999999997 -0.36681751 -0.40379975 -0.61565955 -0.83379226 -1.025003 -1.201268 -1.3762815000000002 -1.4132188 -1.4878131 -1.7930976000000003 -1.8546667000000001 -2.0736805 -2.0869331 -2.0074234 -2.1524661 -2.0920997 -2.0311639 -1.8833278999999998 -1.5725866000000002 -1.3058618999999998 -1.002047 -0.53302166 -0.10067188 0.10165556 0.42403295 0.65213763 0.77169086 0.91439267 0.80432214 0.80127314 0.69083304 0.61021074 0.7091267 0.65098901 0.62584063 0.6350268 0.62785003 0.67701916 0.74058694 0.76568509 0.75747855 0.63137099 0.5503832 0.57019334 0.47303239 0.38274519 0.39918361
-0.58495969 -0.44435779999999997 -0.36681751 -0.40379975 -0.61565955 -0.83379226 -1.025003 -1.201268 -1.3762815000000002 -1.4132188 -1.4878131 -1.7930976000000003 -1.8546667000000001 -2.0736805 -2.0869331 -2.0074234 -2.1524661 -2.0920997 -2.0311639 -1.8833278999999998 -1.5725866000000002 -1.3058618999999998 -1.002047 -0.53302166 -0.10067188 0.10165556 0.42403295 0.65213763 0.77169086 0.91439267 0.80432214 0.80127314 0.69083304 0.61021074 0.7091267 0.65098901 0.62584063 0.6350268 0.62785003 0.67701916 0.74058694 0.76568509 0.75747855 0.63137099 0.5503832 0.57019334 0.47303239 0.38274519 0.39918361 0.33821756
-0.44435779999999997 -0.36681751 -0.40379975 -0.61565955 -0.83379226 -1.025003 -1.201268 -1.3762815000000002 -1.4132188 -1.4878131 -1.7930976000000003 -1.8546667000000001 -2.0736805 -2.0869331 -2.0074234 -2.1524661 -2.0920997 -2.0311639 -1.8833278999999998 -1.5725866000000002 -1.3058618999999998 -1.002047 -0.53302166 -0.10067188 0.10165556 0.42403295 0.65213763 0.77169086 0.91439267 0.80432214 0.80127314 0.69083304 0.61021074 0.7091267 0.65098901 0.62584063 0.6350268 0.62785003 0.67701916 0.74058694 0.76568509 0.75747855 0.63137099 0.5503832 0.57019334 0.47303239 0.38274519 0.39918361 0.33821756 0.25162563
-0.36681751 -0.40379975 -0.61565955 -0.83379226 -1.025003 -1.201268 -1.3762815000000002 -1.4132188 -1.4878131 -1.7930976000000003 -1.8546667000000001 -2.0736805 -2.0869331 -2.0074234 -2.1524661 -2.0920997 -2.0311639 -1.8833278999999998 -1.5725866000000002 -1.3058618999999998 -1.002047 -0.53302166 -0.10067188 0.10165556 0.42403295 0.65213763 0.77169086 0.91439267 0.80432214 0.80127314 0.69083304 0.61021074 0.7091267 0.65098901 0.62584063 0.6350268 0.62785003 0.67701916 0.74058694 0.76568509 0.75747855 0.63137099 0.5503832 0.57019334 0.47303239 0.38274519 0.39918361 0.33821756 0.25162563 0.23681772
-0.40379975 -0.61565955 -0.83379226 -1.025003 -1.201268 -1.3762815000000002 -1.4132188 -1.4878131 -1.7930976000000003 -1.8546667000000001 -2.0736805 -2.0869331 -2.0074234 -2.1524661 -2.0920997 -2.0311639 -1.8833278999999998 -1.5725866000000002 -1.3058618999999998 -1.002047 -0.53302166 -0.10067188 0.10165556 0.42403295 0.65213763 0.77169086 0.91439267 0.80432214 0.80127314 0.69083304 0.61021074 0.7091267 0.65098901 0.62584063 0.6350268 0.62785003 0.67701916 0.74058694 0.76568509 0.75747855 0.63137099 0.5503832 0.57019334 0.47303239 0.38274519 0.39918361 0.33821756 0.25162563 0.23681772 0.21019813
-0.61565955 -0.83379226 -1.025003 -1.201268 -1.3762815000000002 -1.4132188 -1.4878131 -1.7930976000000003 -1.8546667000000001 -2.0736805 -2.0869331 -2.0074234 -2.1524661 -2.0920997 -2.0311639 -1.8833278999999998 -1.5725866000000002 -1.3058618999999998 -1.002047 -0.53302166 -0.10067188 0.10165556 0.42403295 0.65213763 0.77169086 0.91439267 0.80432214 0.80127314 0.69083304 0.61021074 0.7091267 0.65098901 0.62584063 0.6350268 0.62785003 0.67701916 0.74058694 0.76568509 0.75747855 0.63137099 0.5503832 0.57019334 0.47303239 0.38274519 0.39918361 0.33821756 0.25162563 0.23681772 0.21019813 0.19977885
-0.83379226 -1.025003 -1.201268 -1.3762815000000002 -1.4132188 -1.4878131 -1.7930976000000003 -1.8546667000000001 -2.0736805 -2.0869331 -2.0074234 -2.1524661 -2.0920997 -2.0311639 -1.8833278999999998 -1.5725866000000002 -1.3058618999999998 -1.002047 -0.53302166 -0.10067188 0.10165556 0.42403295 0.65213763 0.77169086 0.91439267 0.80432214 0.80127314 0.69083304 0.61021074 0.7091267 0.65098901 0.62584063 0.6350268 0.62785003 0.67701916 0.74058694 0.76568509 0.75747855 0.63137099 0.5503832 0.57019334 0.47303239 0.38274519 0.39918361 0.33821756 0.25162563 0.23681772 0.21019813 0.19977885 0.19538199
-1.025003 -1.201268 -1.3762815000000002 -1.4132188 -1.4878131 -1.7930976000000003 -1.8546667000000001 -2.0736805 -2.0869331 -2.0074234 -2.1524661 -2.0920997 -2.0311639 -1.8833278999999998 -1.5725866000000002 -1.3058618999999998 -1.002047 -0.53302166 -0.10067188 0.10165556 0.42403295 0.65213763 0.77169086 0.91439267 0.80432214 0.80127314 0.69083304 0.61021074 0.7091267 0.65098901 0.62584063 0.6350268 0.62785003 0.67701916 0.74058694 0.76568509 0.75747855 0.63137099 0.5503832 0.57019334 0.47303239 0.38274519 0.39918361 0.33821756 0.25162563 0.23681772 0.21019813 0.19977885 0.19538199 0.15563249
-1.201268 -1.3762815000000002 -1.4132188 -1.4878131 -1.7930976000000003 -1.8546667000000001 -2.0736805 -2.0869331 -2.0074234 -2.1524661 -2.0920997 -2.0311639 -1.8833278999999998 -1.5725866000000002 -1.3058618999999998 -1.002047 -0.53302166 -0.10067188 0.10165556 0.42403295 0.65213763 0.77169086 0.91439267 0.80432214 0.80127314 0.69083304 0.61021074 0.7091267 0.65098901 0.62584063 0.6350268 0.62785003 0.67701916 0.74058694 0.76568509 0.75747855 0.63137099 0.5503832 0.57019334 0.47303239 0.38274519 0.39918361 0.33821756 0.25162563 0.23681772 0.21019813 0.19977885 0.19538199 0.15563249 0.18672692
-1.3762815000000002 -1.4132188 -1.4878131 -1.7930976000000003 -1.8546667000000001 -2.0736805 -2.0869331 -2.0074234 -2.1524661 -2.0920997 -2.0311639 -1.8833278999999998 -1.5725866000000002 -1.3058618999999998 -1.002047 -0.53302166 -0.10067188 0.10165556 0.42403295 0.65213763 0.77169086 0.91439267 0.80432214 0.80127314 0.69083304 0.61021074 0.7091267 0.65098901 0.62584063 0.6350268 0.62785003 0.67701916 0.74058694 0.76568509 0.75747855 0.63137099 0.5503832 0.57019334 0.47303239 0.38274519 0.39918361 0.33821756 0.25162563 0.23681772 0.21019813 0.19977885 0.19538199 0.15563249 0.18672692 0.15264001
-1.4132188 -1.4878131 -1.7930976000000003 -1.8546667000000001 -2.0736805 -2.0869331 -2.0074234 -2.1524661 -2.0920997 -2.0311639 -1.8833278999999998 -1.5725866000000002 -1.3058618999999998 -1.002047 -0.53302166 -0.10067188 0.10165556 0.42403295 0.65213763 0.77169086 0.91439267 0.80432214 0.80127314 0.69083304 0.61021074 0.7091267 0.65098901 0.62584063 0.6350268 0.62785003 0.67701916 0.74058694 0.76568509 0.75747855 0.63137099 0.5503832 0.57019334 0.47303239 0.38274519 0.39918361 0.33821756 0.25162563 0.23681772 0.21019813 0.19977885 0.19538199 0.15563249 0.18672692 0.15264001 0.058320816
-1.4878131 -1.7930976000000003 -1.8546667000000001 -2.0736805 -2.0869331 -2.0074234 -2.1524661 -2.0920997 -2.0311639 -1.8833278999999998 -1.5725866000000002 -1.3058618999999998 -1.002047 -0.53302166 -0.10067188 0.10165556 0.42403295 0.65213763 0.77169086 0.91439267 0.80432214 0.80127314 0.69083304 0.61021074 0.7091267 0.65098901 0.62584063 0.6350268 0.62785003 0.67701916 0.74058694 0.76568509 0.75747855 0.63137099 0.5503832 0.57019334 0.47303239 0.38274519 0.39918361 0.33821756 0.25162563 0.23681772 0.21019813 0.19977885 0.19538199 0.15563249 0.18672692 0.15264001 0.058320816 0.14603854
-1.7930976000000003 -1.8546667000000001 -2.0736805 -2.0869331 -2.0074234 -2.1524661 -2.0920997 -2.0311639 -1.8833278999999998 -1.5725866000000002 -1.3058618999999998 -1.002047 -0.53302166 -0.10067188 0.10165556 0.42403295 0.65213763 0.77169086 0.91439267 0.80432214 0.80127314 0.69083304 0.61021074 0.7091267 0.65098901 0.62584063 0.6350268 0.62785003 0.67701916 0.74058694 0.76568509 0.75747855 0.63137099 0.5503832 0.57019334 0.47303239 0.38274519 0.39918361 0.33821756 0.25162563 0.23681772 0.21019813 0.19977885 0.19538199 0.15563249 0.18672692 0.15264001 0.058320816 0.14603854 0.34330537
-1.8546667000000001 -2.0736805 -2.0869331 -2.0074234 -2.1524661 -2.0920997 -2.0311639 -1.8833278999999998 -1.5725866000000002 -1.3058618999999998 -1.002047 -0.53302166 -0.10067188 0.10165556 0.42403295 0.65213763 0.77169086 0.91439267 0.80432214 0.80127314 0.69083304 0.61021074 0.7091267 0.65098901 0.62584063 0.6350268 0.62785003 0.67701916 0.74058694 0.76568509 0.75747855 0.63137099 0.5503832 0.57019334 0.47303239 0.38274519 0.39918361 0.33821756 0.25162563 0.23681772 0.21019813 0.19977885 0.19538199 0.15563249 0.18672692 0.15264001 0.058320816 0.14603854 0.34330537 0.44168717
-2.0736805 -2.0869331 -2.0074234 -2.1524661 -2.0920997 -2.0311639 -1.8833278999999998 -1.5725866000000002 -1.3058618999999998 -1.002047 -0.53302166 -0.10067188 0.10165556 0.42403295 0.65213763 0.77169086 0.91439267 0.80432214 0.80127314 0.69083304 0.61021074 0.7091267 0.65098901 0.62584063 0.6350268 0.62785003 0.67701916 0.74058694 0.76568509 0.75747855 0.63137099 0.5503832 0.57019334 0.47303239 0.38274519 0.39918361 0.33821756 0.25162563 0.23681772 0.21019813 0.19977885 0.19538199 0.15563249 0.18672692 0.15264001 0.058320816 0.14603854 0.34330537 0.44168717 0.63961804
-2.0869331 -2.0074234 -2.1524661 -2.0920997 -2.0311639 -1.8833278999999998 -1.5725866000000002 -1.3058618999999998 -1.002047 -0.53302166 -0.10067188 0.10165556 0.42403295 0.65213763 0.77169086 0.91439267 0.80432214 0.80127314 0.69083304 0.61021074 0.7091267 0.65098901 0.62584063 0.6350268 0.62785003 0.67701916 0.74058694 0.76568509 0.75747855 0.63137099 0.5503832 0.57019334 0.47303239 0.38274519 0.39918361 0.33821756 0.25162563 0.23681772 0.21019813 0.19977885 0.19538199 0.15563249 0.18672692 0.15264001 0.058320816 0.14603854 0.34330537 0.44168717 0.63961804 0.64339829
-2.0074234 -2.1524661 -2.0920997 -2.0311639 -1.8833278999999998 -1.5725866000000002 -1.3058618999999998 -1.002047 -0.53302166 -0.10067188 0.10165556 0.42403295 0.65213763 0.77169086 0.91439267 0.80432214 0.80127314 0.69083304 0.61021074 0.7091267 0.65098901 0.62584063 0.6350268 0.62785003 0.67701916 0.74058694 0.76568509 0.75747855 0.63137099 0.5503832 0.57019334 0.47303239 0.38274519 0.39918361 0.33821756 0.25162563 0.23681772 0.21019813 0.19977885 0.19538199 0.15563249 0.18672692 0.15264001 0.058320816 0.14603854 0.34330537 0.44168717 0.63961804 0.64339829 0.44976835
-2.1524661 -2.0920997 -2.0311639 -1.8833278999999998 -1.5725866000000002 -1.3058618999999998 -1.002047 -0.53302166 -0.10067188 0.10165556 0.42403295 0.65213763 0.77169086 0.91439267 0.80432214 0.80127314 0.69083304 0.61021074 0.7091267 0.65098901 0.62584063 0.6350268 0.62785003 0.67701916 0.74058694 0.76568509 0.75747855 0.63137099 0.5503832 0.57019334 0.47303239 0.38274519 0.39918361 0.33821756 0.25162563 0.23681772 0.21019813 0.19977885 0.19538199 0.15563249 0.18672692 0.15264001 0.058320816 0.14603854 0.34330537 0.44168717 0.63961804 0.64339829 0.44976835 0.41549582
-2.0920997 -2.0311639 -1.8833278999999998 -1.5725866000000002 -1.3058618999999998 -1.002047 -0.53302166 -0.10067188 0.10165556 0.42403295 0.65213763 0.77169086 0.91439267 0.80432214 0.80127314 0.69083304 0.61021074 0.7091267 0.65098901 0.62584063 0.6350268 0.62785003 0.67701916 0.74058694 0.76568509 0.75747855 0.63137099 0.5503832 0.57019334 0.47303239 0.38274519 0.39918361 0.33821756 0.25162563 0.23681772 0.21019813 0.19977885 0.19538199 0.15563249 0.18672692 0.15264001 0.058320816 0.14603854 0.34330537 0.44168717 0.63961804 0.64339829 0.44976835 0.41549582 0.24083847
-2.0311639 -1.8833278999999998 -1.5725866000000002 -1.3058618999999998 -1.002047 -0.53302166 -0.10067188 0.10165556 0.42403295 0.65213763 0.77169086 0.91439267 0.80432214 0.80127314 0.69083304 0.61021074 0.7091267 0.65098901 0.62584063 0.6350268 0.62785003 0.67701916 0.74058694 0.76568509 0.75747855 0.63137099 0.5503832 0.57019334 0.47303239 0.38274519 0.39918361 0.33821756 0.25162563 0.23681772 0.21019813 0.19977885 0.19538199 0.15563249 0.18672692 0.15264001 0.058320816 0.14603854 0.34330537 0.44168717 0.63961804 0.64339829 0.44976835 0.41549582 0.24083847 0.11312449
-1.8833278999999998 -1.5725866000000002 -1.3058618999999998 -1.002047 -0.53302166 -0.10067188 0.10165556 0.42403295 0.65213763 0.77169086 0.91439267 0.80432214 0.80127314 0.69083304 0.61021074 0.7091267 0.65098901 0.62584063 0.6350268 0.62785003 0.67701916 0.74058694 0.76568509 0.75747855 0.63137099 0.5503832 0.57019334 0.47303239 0.38274519 0.39918361 0.33821756 0.25162563 0.23681772 0.21019813 0.19977885 0.19538199 0.15563249 0.18672692 0.15264001 0.058320816 0.14603854 0.34330537 0.44168717 0.63961804 0.64339829 0.44976835 0.41549582 0.24083847 0.11312449 0.042859218
-1.5725866000000002 -1.3058618999999998 -1.002047 -0.53302166 -0.10067188 0.10165556 0.42403295 0.65213763 0.77169086 0.91439267 0.80432214 0.80127314 0.69083304 0.61021074 0.7091267 0.65098901 0.62584063 0.6350268 0.62785003 0.67701916 0.74058694 0.76568509 0.75747855 0.63137099 0.5503832 0.57019334 0.47303239 0.38274519 0.39918361 0.33821756 0.25162563 0.23681772 0.21019813 0.19977885 0.19538199 0.15563249 0.18672692 0.15264001 0.058320816 0.14603854 0.34330537 0.44168717 0.63961804 0.64339829 0.44976835 0.41549582 0.24083847 0.11312449 0.042859218 -0.11644459
-1.3058618999999998 -1.002047 -0.53302166 -0.10067188 0.10165556 0.42403295 0.65213763 0.77169086 0.91439267 0.80432214 0.80127314 0.69083304 0.61021074 0.7091267 0.65098901 0.62584063 0.6350268 0.62785003 0.67701916 0.74058694 0.76568509 0.75747855 0.63137099 0.5503832 0.57019334 0.47303239 0.38274519 0.39918361 0.33821756 0.25162563 0.23681772 0.21019813 0.19977885 0.19538199 0.15563249 0.18672692 0.15264001 0.058320816 0.14603854 0.34330537 0.44168717 0.63961804 0.64339829 0.44976835 0.41549582 0.24083847 0.11312449 0.042859218 -0.11644459 -0.089543136
-1.002047 -0.53302166 -0.10067188 0.10165556 0.42403295 0.65213763 0.77169086 0.91439267 0.80432214 0.80127314 0.69083304 0.61021074 0.7091267 0.65098901 0.62584063 0.6350268 0.62785003 0.67701916 0.74058694 0.76568509 0.75747855 0.63137099 0.5503832 0.57019334 0.47303239 0.38274519 0.39918361 0.33821756 0.25162563 0.23681772 0.21019813 0.19977885 0.19538199 0.15563249 0.18672692 0.15264001 0.058320816 0.14603854 0.34330537 0.44168717 0.63961804 0.64339829 0.44976835 0.41549582 0.24083847 0.11312449 0.042859218 -0.11644459 -0.089543136 -0.06428276599999999
-0.53302166 -0.10067188 0.10165556 0.42403295 0.65213763 0.77169086 0.91439267 0.80432214 0.80127314 0.69083304 0.61021074 0.7091267 0.65098901 0.62584063 0.6350268 0.62785003 0.67701916 0.74058694 0.76568509 0.75747855 0.63137099 0.5503832 0.57019334 0.47303239 0.38274519 0.39918361 0.33821756 0.25162563 0.23681772 0.21019813 0.19977885 0.19538199 0.15563249 0.18672692 0.15264001 0.058320816 0.14603854 0.34330537 0.44168717 0.63961804 0.64339829 0.44976835 0.41549582 0.24083847 0.11312449 0.042859218 -0.11644459 -0.089543136 -0.06428276599999999 -0.13243209
-0.10067188 0.10165556 0.42403295 0.65213763 0.77169086 0.91439267 0.80432214 0.80127314 0.69083304 0.61021074 0.7091267 0.65098901 0.62584063 0.6350268 0.62785003 0.67701916 0.74058694 0.76568509 0.75747855 0.63137099 0.5503832 0.57019334 0.47303239 0.38274519 0.39918361 0.33821756 0.25162563 0.23681772 0.21019813 0.19977885 0.19538199 0.15563249 0.18672692 0.15264001 0.058320816 0.14603854 0.34330537 0.44168717 0.63961804 0.64339829 0.44976835 0.41549582 0.24083847 0.11312449 0.042859218 -0.11644459 -0.089543136 -0.06428276599999999 -0.13243209 -0.16534767
0.10165556 0.42403295 0.65213763 0.77169086 0.91439267 0.80432214 0.80127314 0.69083304 0.61021074 0.7091267 0.65098901 0.62584063 0.6350268 0.62785003 0.67701916 0.74058694 0.76568509 0.75747855 0.63137099 0.5503832 0.57019334 0.47303239 0.38274519 0.39918361 0.33821756 0.25162563 0.23681772 0.21019813 0.19977885 0.19538199 0.15563249 0.18672692 0.15264001 0.058320816 0.14603854 0.34330537 0.44168717 0.63961804 0.64339829 0.44976835 0.41549582 0.24083847 0.11312449 0.042859218 -0.11644459 -0.089543136 -0.06428276599999999 -0.13243209 -0.16534767 -0.12308486
0.42403295 0.65213763 0.77169086 0.91439267 0.80432214 0.80127314 0.69083304 0.61021074 0.7091267 0.65098901 0.62584063 0.6350268 0.62785003 0.67701916 0.74058694 0.76568509 0.75747855 0.63137099 0.5503832 0.57019334 0.47303239 0.38274519 0.39918361 0.33821756 0.25162563 0.23681772 0.21019813 0.19977885 0.19538199 0.15563249 0.18672692 0.15264001 0.058320816 0.14603854 0.34330537 0.44168717 0.63961804 0.64339829 0.44976835 0.41549582 0.24083847 0.11312449 0.042859218 -0.11644459 -0.089543136 -0.06428276599999999 -0.13243209 -0.16534767 -0.12308486 -0.26683751
0.65213763 0.77169086 0.91439267 0.80432214 0.80127314 0.69083304 0.61021074 0.7091267 0.65098901 0.62584063 0.6350268 0.62785003 0.67701916 0.74058694 0.76568509 0.75747855 0.63137099 0.5503832 0.57019334 0.47303239 0.38274519 0.39918361 0.33821756 0.25162563 0.23681772 0.21019813 0.19977885 0.19538199 0.15563249 0.18672692 0.15264001 0.058320816 0.14603854 0.34330537 0.44168717 0.63961804 0.64339829 0.44976835 0.41549582 0.24083847 0.11312449 0.042859218 -0.11644459 -0.089543136 -0.06428276599999999 -0.13243209 -0.16534767 -0.12308486 -0.26683751 -0.31281061
0.77169086 0.91439267 0.80432214 0.80127314 0.69083304 0.61021074 0.7091267 0.65098901 0.62584063 0.6350268 0.62785003 0.67701916 0.74058694 0.76568509 0.75747855 0.63137099 0.5503832 0.57019334 0.47303239 0.38274519 0.39918361 0.33821756 0.25162563 0.23681772 0.21019813 0.19977885 0.19538199 0.15563249 0.18672692 0.15264001 0.058320816 0.14603854 0.34330537 0.44168717 0.63961804 0.64339829 0.44976835 0.41549582 0.24083847 0.11312449 0.042859218 -0.11644459 -0.089543136 -0.06428276599999999 -0.13243209 -0.16534767 -0.12308486 -0.26683751 -0.31281061 -0.1985655
0.91439267 0.80432214 0.80127314 0.69083304 0.61021074 0.7091267 0.65098901 0.62584063 0.6350268 0.62785003 0.67701916 0.74058694 0.76568509 0.75747855 0.63137099 0.5503832 0.57019334 0.47303239 0.38274519 0.39918361 0.33821756 0.25162563 0.23681772 0.21019813 0.19977885 0.19538199 0.15563249 0.18672692 0.15264001 0.058320816 0.14603854 0.34330537 0.44168717 0.63961804 0.64339829 0.44976835 0.41549582 0.24083847 0.11312449 0.042859218 -0.11644459 -0.089543136 -0.06428276599999999 -0.13243209 -0.16534767 -0.12308486 -0.26683751 -0.31281061 -0.1985655 -0.11995395
0.80432214 0.80127314 0.69083304 0.61021074 0.7091267 0.65098901 0.62584063 0.6350268 0.62785003 0.67701916 0.74058694 0.76568509 0.75747855 0.63137099 0.5503832 0.57019334 0.47303239 0.38274519 0.39918361 0.33821756 0.25162563 0.23681772 0.21019813 0.19977885 0.19538199 0.15563249 0.18672692 0.15264001 0.058320816 0.14603854 0.34330537 0.44168717 0.63961804 0.64339829 0.44976835 0.41549582 0.24083847 0.11312449 0.042859218 -0.11644459 -0.089543136 -0.06428276599999999 -0.13243209 -0.16534767 -0.12308486 -0.26683751 -0.31281061 -0.1985655 -0.11995395 -0.07697926299999999
0.80127314 0.69083304 0.61021074 0.7091267 0.65098901 0.62584063 0.6350268 0.62785003 0.67701916 0.74058694 0.76568509 0.75747855 0.63137099 0.5503832 0.57019334 0.47303239 0.38274519 0.39918361 0.33821756 0.25162563 0.23681772 0.21019813 0.19977885 0.19538199 0.15563249 0.18672692 0.15264001 0.058320816 0.14603854 0.34330537 0.44168717 0.63961804 0.64339829 0.44976835 0.41549582 0.24083847 0.11312449 0.042859218 -0.11644459 -0.089543136 -0.06428276599999999 -0.13243209 -0.16534767 -0.12308486 -0.26683751 -0.31281061 -0.1985655 -0.11995395 -0.07697926299999999 -0.14541578
0.69083304 0.61021074 0.7091267 0.65098901 0.62584063 0.6350268 0.62785003 0.67701916 0.74058694 0.76568509 0.75747855 0.63137099 0.5503832 0.57019334 0.47303239 0.38274519 0.39918361 0.33821756 0.25162563 0.23681772 0.21019813 0.19977885 0.19538199 0.15563249 0.18672692 0.15264001 0.058320816 0.14603854 0.34330537 0.44168717 0.63961804 0.64339829 0.44976835 0.41549582 0.24083847 0.11312449 0.042859218 -0.11644459 -0.089543136 -0.06428276599999999 -0.13243209 -0.16534767 -0.12308486 -0.26683751 -0.31281061 -0.1985655 -0.11995395 -0.07697926299999999 -0.14541578 -0.037778275
