0.40473265 1.2808587 2.5151479 1.2995187 1.4534323 0.47427508 -1.3965618999999998 -0.64708079 0.4319451 0.13244512 -0.40660902 0.23056633 -0.12135267 -0.9186398000000001 -1.2467708999999998 -1.3483736000000002 -1.1902833000000002 -1.0112698 -2.0039201 -1.3270367 -0.97603428 -1.8636168999999998 -1.4876913999999999 -1.6161398999999999 -1.9575633999999997 -1.7006636999999998 -1.5184788 -1.8975843000000001 -2.1771748 -1.8727894 -1.7752904999999999 -1.6681586 -1.9333433 -1.4896118 -1.1507331 -1.0781561000000002 -0.77372316 -0.5202207 -0.20525277 -0.026608191 0.29905385 0.19431966 0.70179318 0.67189094 0.85378659 0.67685205 0.89891601 0.77225822 0.6498630999999999 0.63881629
1.2808587 2.5151479 1.2995187 1.4534323 0.47427508 -1.3965618999999998 -0.64708079 0.4319451 0.13244512 -0.40660902 0.23056633 -0.12135267 -0.9186398000000001 -1.2467708999999998 -1.3483736000000002 -1.1902833000000002 -1.0112698 -2.0039201 -1.3270367 -0.97603428 -1.8636168999999998 -1.4876913999999999 -1.6161398999999999 -1.9575633999999997 -1.7006636999999998 -1.5184788 -1.8975843000000001 -2.1771748 -1.8727894 -1.7752904999999999 -1.6681586 -1.9333433 -1.4896118 -1.1507331 -1.0781561000000002 -0.77372316 -0.5202207 -0.20525277 -0.026608191 0.29905385 0.19431966 0.70179318 0.67189094 0.85378659 0.67685205 0.89891601 0.77225822 0.6498630999999999 0.63881629 0.67025023
2.5151479 1.2995187 1.4534323 0.47427508 -1.3965618999999998 -0.64708079 0.4319451 0.13244512 -0.40660902 0.23056633 -0.12135267 -0.9186398000000001 -1.2467708999999998 -1.3483736000000002 -1.1902833000000002 -1.0112698 -2.0039201 -1.3270367 -0.97603428 -1.8636168999999998 -1.4876913999999999 -1.6161398999999999 -1.9575633999999997 -1.7006636999999998 -1.5184788 -1.8975843000000001 -2.1771748 -1.8727894 -1.7752904999999999 -1.6681586 -1.9333433 -1.4896118 -1.1507331 -1.0781561000000002 -0.77372316 -0.5202207 -0.20525277 -0.026608191 0.29905385 0.19431966 0.70179318 0.67189094 0.85378659 0.67685205 0.89891601 0.77225822 0.6498630999999999 0.63881629 0.67025023 1.0374359
1.2995187 1.4534323 0.47427508 -1.3965618999999998 -0.64708079 0.4319451 0.13244512 -0.40660902 0.23056633 -0.12135267 -0.9186398000000001 -1.2467708999999998 -1.3483736000000002 -1.1902833000000002 -1.0112698 -2.0039201 -1.3270367 -0.97603428 -1.8636168999999998 -1.4876913999999999 -1.6161398999999999 -1.9575633999999997 -1.7006636999999998 -1.5184788 -1.8975843000000001 -2.1771748 -1.8727894 -1.7752904999999999 -1.6681586 -1.9333433 -1.4896118 -1.1507331 -1.0781561000000002 -0.77372316 -0.5202207 -0.20525277 -0.026608191 0.29905385 0.19431966 0.70179318 0.67189094 0.85378659 0.67685205 0.89891601 0.77225822 0.6498630999999999 0.63881629 0.67025023 1.0374359 0.43305326
1.4534323 0.47427508 -1.3965618999999998 -0.64708079 0.4319451 0.13244512 -0.40660902 0.23056633 -0.12135267 -0.9186398000000001 -1.2467708999999998 -1.3483736000000002 -1.1902833000000002 -1.0112698 -2.0039201 -1.3270367 -0.97603428 -1.8636168999999998 -1.4876913999999999 -1.6161398999999999 -1.9575633999999997 -1.7006636999999998 -1.5184788 -1.8975843000000001 -2.1771748 -1.8727894 -1.7752904999999999 -1.6681586 -1.9333433 -1.4896118 -1.1507331 -1.0781561000000002 -0.77372316 -0.5202207 -0.20525277 -0.026608191 0.29905385 0.19431966 0.70179318 0.67189094 0.85378659 0.67685205 0.89891601 0.77225822 0.6498630999999999 0.63881629 0.67025023 1.0374359 0.43305326 0.65715862
0.47427508 -1.3965618999999998 -0.64708079 0.4319451 0.13244512 -0.40660902 0.23056633 -0.12135267 -0.9186398000000001 -1.2467708999999998 -1.3483736000000002 -1.1902833000000002 -1.0112698 -2.0039201 -1.3270367 -0.97603428 -1.8636168999999998 -1.4876913999999999 -1.6161398999999999 -1.9575633999999997 -1.7006636999999998 -1.5184788 -1.8975843000000001 -2.1771748 -1.8727894 -1.7752904999999999 -1.6681586 -1.9333433 -1.4896118 -1.1507331 -1.0781561000000002 -0.77372316 -0.5202207 -0.20525277 -0.026608191 0.29905385 0.19431966 0.70179318 0.67189094 0.85378659 0.67685205 0.89891601 0.77225822 0.6498630999999999 0.63881629 0.67025023 1.0374359 0.43305326 0.65715862 0.52901327
-1.3965618999999998 -0.64708079 0.4319451 0.13244512 -0.40660902 0.23056633 -0.12135267 -0.9186398000000001 -1.2467708999999998 -1.3483736000000002 -1.1902833000000002 -1.0112698 -2.0039201 -1.3270367 -0.97603428 -1.8636168999999998 -1.4876913999999999 -1.6161398999999999 -1.9575633999999997 -1.7006636999999998 -1.5184788 -1.8975843000000001 -2.1771748 -1.8727894 -1.7752904999999999 -1.6681586 -1.9333433 -1.4896118 -1.1507331 -1.0781561000000002 -0.77372316 -0.5202207 -0.20525277 -0.026608191 0.29905385 0.19431966 0.70179318 0.67189094 0.85378659 0.67685205 0.89891601 0.77225822 0.6498630999999999 0.63881629 0.67025023 1.0374359 0.43305326 0.65715862 0.52901327 0.56207051
-0.64708079 0.4319451 0.13244512 -0.40660902 0.23056633 -0.12135267 -0.9186398000000001 -1.2467708999999998 -1.3483736000000002 -1.1902833000000002 -1.0112698 -2.0039201 -1.3270367 -0.97603428 -1.8636168999999998 -1.4876913999999999 -1.6161398999999999 -1.9575633999999997 -1.7006636999999998 -1.5184788 -1.8975843000000001 -2.1771748 -1.8727894 -1.7752904999999999 -1.6681586 -1.9333433 -1.4896118 -1.1507331 -1.0781561000000002 -0.77372316 -0.5202207 -0.20525277 -0.026608191 0.29905385 0.19431966 0.70179318 0.67189094 0.85378659 0.67685205 0.89891601 0.77225822 0.6498630999999999 0.63881629 0.67025023 1.0374359 0.43305326 0.65715862 0.52901327 0.56207051 1.0283513000000002
0.4319451 0.13244512 -0.40660902 0.23056633 -0.12135267 -0.9186398000000001 -1.2467708999999998 -1.3483736000000002 -1.1902833000000002 -1.0112698 -2.0039201 -1.3270367 -0.97603428 -1.8636168999999998 -1.4876913999999999 -1.6161398999999999 -1.9575633999999997 -1.7006636999999998 -1.5184788 -1.8975843000000001 -2.1771748 -1.8727894 -1.7752904999999999 -1.6681586 -1.9333433 -1.4896118 -1.1507331 -1.0781561000000002 -0.77372316 -0.5202207 -0.20525277 -0.026608191 0.29905385 0.19431966 0.70179318 0.67189094 0.85378659 0.67685205 0.89891601 0.77225822 0.6498630999999999 0.63881629 0.67025023 1.0374359 0.43305326 0.65715862 0.52901327 0.56207051 1.0283513000000002 -0.019686467
0.13244512 -0.40660902 0.23056633 -0.12135267 -0.9186398000000001 -1.2467708999999998 -1.3483736000000002 -1.1902833000000002 -1.0112698 -2.0039201 -1.3270367 -0.97603428 -1.8636168999999998 -1.4876913999999999 -1.6161398999999999 -1.9575633999999997 -1.7006636999999998 -1.5184788 -1.8975843000000001 -2.1771748 -1.8727894 -1.7752904999999999 -1.6681586 -1.9333433 -1.4896118 -1.1507331 -1.0781561000000002 -0.77372316 -0.5202207 -0.20525277 -0.026608191 0.29905385 0.19431966 0.70179318 0.67189094 0.85378659 0.67685205 0.89891601 0.77225822 0.6498630999999999 0.63881629 0.67025023 1.0374359 0.43305326 0.65715862 0.52901327 0.56207051 1.0283513000000002 -0.019686467 1.1777618
-0.40660902 0.23056633 -0.12135267 -0.9186398000000001 -1.2467708999999998 -1.3483736000000002 -1.1902833000000002 -1.0112698 -2.0039201 -1.3270367 -0.97603428 -1.8636168999999998 -1.4876913999999999 -1.6161398999999999 -1.9575633999999997 -1.7006636999999998 -1.5184788 -1.8975843000000001 -2.1771748 -1.8727894 -1.7752904999999999 -1.6681586 -1.9333433 -1.4896118 -1.1507331 -1.0781561000000002 -0.77372316 -0.5202207 -0.20525277 -0.026608191 0.29905385 0.19431966 0.70179318 0.67189094 0.85378659 0.67685205 0.89891601 0.77225822 0.6498630999999999 0.63881629 0.67025023 1.0374359 0.43305326 0.65715862 0.52901327 0.56207051 1.0283513000000002 -0.019686467 1.1777618 0.84790423
0.23056633 -0.12135267 -0.9186398000000001 -1.2467708999999998 -1.3483736000000002 -1.1902833000000002 -1.0112698 -2.0039201 -1.3270367 -0.97603428 -1.8636168999999998 -1.4876913999999999 -1.6161398999999999 -1.9575633999999997 -1.7006636999999998 -1.5184788 -1.8975843000000001 -2.1771748 -1.8727894 -1.7752904999999999 -1.6681586 -1.9333433 -1.4896118 -1.1507331 -1.0781561000000002 -0.77372316 -0.5202207 -0.20525277 -0.026608191 0.29905385 0.19431966 0.70179318 0.67189094 0.85378659 0.67685205 0.89891601 0.77225822 0.6498630999999999 0.63881629 0.67025023 1.0374359 0.43305326 0.65715862 0.52901327 0.56207051 1.0283513000000002 -0.019686467 1.1777618 0.84790423 0.16943202
-0.12135267 -0.9186398000000001 -1.2467708999999998 -1.3483736000000002 -1.1902833000000002 -1.0112698 -2.0039201 -1.3270367 -0.97603428 -1.8636168999999998 -1.4876913999999999 -1.6161398999999999 -1.9575633999999997 -1.7006636999999998 -1.5184788 -1.8975843000000001 -2.1771748 -1.8727894 -1.7752904999999999 -1.6681586 -1.9333433 -1.4896118 -1.1507331 -1.0781561000000002 -0.77372316 -0.5202207 -0.20525277 -0.026608191 0.29905385 0.19431966 0.70179318 0.67189094 0.85378659 0.67685205 0.89891601 0.77225822 0.6498630999999999 0.63881629 0.67025023 1.0374359 0.43305326 0.65715862 0.52901327 0.56207051 1.0283513000000002 -0.019686467 1.1777618 0.84790423 0.16943202 0.67343368
-0.9186398000000001 -1.2467708999999998 -1.3483736000000002 -1.1902833000000002 -1.0112698 -2.0039201 -1.3270367 -0.97603428 -1.8636168999999998 -1.4876913999999999 -1.6161398999999999 -1.9575633999999997 -1.7006636999999998 -1.5184788 -1.8975843000000001 -2.1771748 -1.8727894 -1.7752904999999999 -1.6681586 -1.9333433 -1.4896118 -1.1507331 -1.0781561000000002 -0.77372316 -0.5202207 -0.20525277 -0.026608191 0.29905385 0.19431966 0.70179318 0.67189094 0.85378659 0.67685205 0.89891601 0.77225822 0.6498630999999999 0.63881629 0.67025023 1.0374359 0.43305326 0.65715862 0.52901327 0.56207051 1.0283513000000002 -0.019686467 1.1777618 0.84790423 0.16943202 0.67343368 0.6352647
-1.2467708999999998 -1.3483736000000002 -1.1902833000000002 -1.0112698 -2.0039201 -1.3270367 -0.97603428 -1.8636168999999998 -1.4876913999999999 -1.6161398999999999 -1.9575633999999997 -1.7006636999999998 -1.5184788 -1.8975843000000001 -2.1771748 -1.8727894 -1.7752904999999999 -1.6681586 -1.9333433 -1.4896118 -1.1507331 -1.0781561000000002 -0.77372316 -0.5202207 -0.20525277 -0.026608191 0.29905385 0.19431966 0.70179318 0.67189094 0.85378659 0.67685205 0.89891601 0.77225822 0.6498630999999999 0.63881629 0.67025023 1.0374359 0.43305326 0.65715862 0.52901327 0.56207051 1.0283513000000002 -0.019686467 1.1777618 0.84790423 0.16943202 0.67343368 0.6352647 0.74822003
-1.3483736000000002 -1.1902833000000002 -1.0112698 -2.0039201 -1.3270367 -0.97603428 -1.8636168999999998 -1.4876913999999999 -1.6161398999999999 -1.9575633999999997 -1.7006636999999998 -1.5184788 -1.8975843000000001 -2.1771748 -1.8727894 -1.7752904999999999 -1.6681586 -1.9333433 -1.4896118 -1.1507331 -1.0781561000000002 -0.77372316 -0.5202207 -0.20525277 -0.026608191 0.29905385 0.19431966 0.70179318 0.67189094 0.85378659 0.67685205 0.89891601 0.77225822 0.6498630999999999 0.63881629 0.67025023 1.0374359 0.43305326 0.65715862 0.52901327 0.56207051 1.0283513000000002 -0.019686467 1.1777618 0.84790423 0.16943202 0.67343368 0.6352647 0.74822003 0.64016663
-1.1902833000000002 -1.0112698 -2.0039201 -1.3270367 -0.97603428 -1.8636168999999998 -1.4876913999999999 -1.6161398999999999 -1.9575633999999997 -1.7006636999999998 -1.5184788 -1.8975843000000001 -2.1771748 -1.8727894 -1.7752904999999999 -1.6681586 -1.9333433 -1.4896118 -1.1507331 -1.0781561000000002 -0.77372316 -0.5202207 -0.20525277 -0.026608191 0.29905385 0.19431966 0.70179318 0.67189094 0.85378659 0.67685205 0.89891601 0.77225822 0.6498630999999999 0.63881629 0.67025023 1.0374359 0.43305326 0.65715862 0.52901327 0.56207051 1.0283513000000002 -0.019686467 1.1777618 0.84790423 0.16943202 0.67343368 0.6352647 0.74822003 0.64016663 0.59131589
-1.0112698 -2.0039201 -1.3270367 -0.97603428 -1.8636168999999998 -1.4876913999999999 -1.6161398999999999 -1.9575633999999997 -1.7006636999999998 -1.5184788 -1.8975843000000001 -2.1771748 -1.8727894 -1.7752904999999999 -1.6681586 -1.9333433 -1.4896118 -1.1507331 -1.0781561000000002 -0.77372316 -0.5202207 -0.20525277 -0.026608191 0.29905385 0.19431966 0.70179318 0.67189094 0.85378659 0.67685205 0.89891601 0.77225822 0.6498630999999999 0.63881629 0.67025023 1.0374359 0.43305326 0.65715862 0.52901327 0.56207051 1.0283513000000002 -0.019686467 1.1777618 0.84790423 0.16943202 0.67343368 0.6352647 0.74822003 0.64016663 0.59131589 0.43168075
-2.0039201 -1.3270367 -0.97603428 -1.8636168999999998 -1.4876913999999999 -1.6161398999999999 -1.9575633999999997 -1.7006636999999998 -1.5184788 -1.8975843000000001 -2.1771748 -1.8727894 -1.7752904999999999 -1.6681586 -1.9333433 -1.4896118 -1.1507331 -1.0781561000000002 -0.77372316 -0.5202207 -0.20525277 -0.026608191 0.29905385 0.19431966 0.70179318 0.67189094 0.85378659 0.67685205 0.89891601 0.77225822 0.6498630999999999 0.63881629 0.67025023 1.0374359 0.43305326 0.65715862 0.52901327 0.56207051 1.0283513000000002 -0.019686467 1.1777618 0.84790423 0.16943202 0.67343368 0.6352647 0.74822003 0.64016663 0.59131589 0.43168075 0.71749974
-1.3270367 -0.97603428 -1.8636168999999998 -1.4876913999999999 -1.6161398999999999 -1.9575633999999997 -1.7006636999999998 -1.5184788 -1.8975843000000001 -2.1771748 -1.8727894 -1.7752904999999999 -1.6681586 -1.9333433 -1.4896118 -1.1507331 -1.0781561000000002 -0.77372316 -0.5202207 -0.20525277 -0.026608191 0.29905385 0.19431966 0.70179318 0.67189094 0.85378659 0.67685205 0.89891601 0.77225822 0.6498630999999999 0.63881629 0.67025023 1.0374359 0.43305326 0.65715862 0.52901327 0.56207051 1.0283513000000002 -0.019686467 1.1777618 0.84790423 0.16943202 0.67343368 0.6352647 0.74822003 0.64016663 0.59131589 0.43168075 0.71749974 0.59541636
-0.97603428 -1.8636168999999998 -1.4876913999999999 -1.6161398999999999 -1.9575633999999997 -1.7006636999999998 -1.5184788 -1.8975843000000001 -2.1771748 -1.8727894 -1.7752904999999999 -1.6681586 -1.9333433 -1.4896118 -1.1507331 -1.0781561000000002 -0.77372316 -0.5202207 -0.20525277 -0.026608191 0.29905385 0.19431966 0.70179318 0.67189094 0.85378659 0.67685205 0.89891601 0.77225822 0.6498630999999999 0.63881629 0.67025023 1.0374359 0.43305326 0.65715862 0.52901327 0.56207051 1.0283513000000002 -0.019686467 1.1777618 0.84790423 0.16943202 0.67343368 0.6352647 0.74822003 0.64016663 0.59131589 0.43168075 0.71749974 0.59541636 0.45848779
-1.8636168999999998 -1.4876913999999999 -1.6161398999999999 -1.9575633999999997 -1.7006636999999998 -1.5184788 -1.8975843000000001 -2.1771748 -1.8727894 -1.7752904999999999 -1.6681586 -1.9333433 -1.4896118 -1.1507331 -1.0781561000000002 -0.77372316 -0.5202207 -0.20525277 -0.026608191 0.29905385 0.19431966 0.70179318 0.67189094 0.85378659 0.67685205 0.89891601 0.77225822 0.6498630999999999 0.63881629 0.67025023 1.0374359 0.43305326 0.65715862 0.52901327 0.56207051 1.0283513000000002 -0.019686467 1.1777618 0.84790423 0.16943202 0.67343368 0.6352647 0.74822003 0.64016663 0.59131589 0.43168075 0.71749974 0.59541636 0.45848779 0.48356648
-1.4876913999999999 -1.6161398999999999 -1.9575633999999997 -1.7006636999999998 -1.5184788 -1.8975843000000001 -2.1771748 -1.8727894 -1.7752904999999999 -1.6681586 -1.9333433 -1.4896118 -1.1507331 -1.0781561000000002 -0.77372316 -0.5202207 -0.20525277 -0.026608191 0.29905385 0.19431966 0.70179318 0.67189094 0.85378659 0.67685205 0.89891601 0.77225822 0.6498630999999999 0.63881629 0.67025023 1.0374359 0.43305326 0.65715862 0.52901327 0.56207051 1.0283513000000002 -0.019686467 1.1777618 0.84790423 0.16943202 0.67343368 0.6352647 0.74822003 0.64016663 0.59131589 0.43168075 0.71749974 0.59541636 0.45848779 0.48356648 0.65571268
-1.6161398999999999 -1.9575633999999997 -1.7006636999999998 -1.5184788 -1.8975843000000001 -2.1771748 -1.8727894 -1.7752904999999999 -1.6681586 -1.9333433 -1.4896118 -1.1507331 -1.0781561000000002 -0.77372316 -0.5202207 -0.20525277 -0.026608191 0.29905385 0.19431966 0.70179318 0.67189094 0.85378659 0.67685205 0.89891601 0.77225822 0.6498630999999999 0.63881629 0.67025023 1.0374359 0.43305326 0.65715862 0.52901327 0.56207051 1.0283513000000002 -0.019686467 1.1777618 0.84790423 0.16943202 0.67343368 0.6352647 0.74822003 0.64016663 0.59131589 0.43168075 0.71749974 0.59541636 0.45848779 0.48356648 0.65571268 0.49079447
-1.9575633999999997 -1.7006636999999998 -1.5184788 -1.8975843000000001 -2.1771748 -1.8727894 -1.7752904999999999 -1.6681586 -1.9333433 -1.4896118 -1.1507331 -1.0781561000000002 -0.77372316 -0.5202207 -0.20525277 -0.026608191 0.29905385 0.19431966 0.70179318 0.67189094 0.85378659 0.67685205 0.89891601 0.77225822 0.6498630999999999 0.63881629 0.67025023 1.0374359 0.43305326 0.65715862 0.52901327 0.56207051 1.0283513000000002 -0.019686467 1.1777618 0.84790423 0.16943202 0.67343368 0.6352647 0.74822003 0.64016663 0.59131589 0.43168075 0.71749974 0.59541636 0.45848779 0.48356648 0.65571268 0.49079447 1.0668703000000002
-1.7006636999999998 -1.5184788 -1.8975843000000001 -2.1771748 -1.8727894 -1.7752904999999999 -1.6681586 -1.9333433 -1.4896118 -1.1507331 -1.0781561000000002 -0.77372316 -0.5202207 -0.20525277 -0.026608191 0.29905385 0.19431966 0.70179318 0.67189094 0.85378659 0.67685205 0.89891601 0.77225822 0.6498630999999999 0.63881629 0.67025023 1.0374359 0.43305326 0.65715862 0.52901327 0.56207051 1.0283513000000002 -0.019686467 1.1777618 0.84790423 0.16943202 0.67343368 0.6352647 0.74822003 0.64016663 0.59131589 0.43168075 0.71749974 0.59541636 0.45848779 0.48356648 0.65571268 0.49079447 1.0668703000000002 0.92914878
-1.5184788 -1.8975843000000001 -2.1771748 -1.8727894 -1.7752904999999999 -1.6681586 -1.9333433 -1.4896118 -1.1507331 -1.0781561000000002 -0.77372316 -0.5202207 -0.20525277 -0.026608191 0.29905385 0.19431966 0.70179318 0.67189094 0.85378659 0.67685205 0.89891601 0.77225822 0.6498630999999999 0.63881629 0.67025023 1.0374359 0.43305326 0.65715862 0.52901327 0.56207051 1.0283513000000002 -0.019686467 1.1777618 0.84790423 0.16943202 0.67343368 0.6352647 0.74822003 0.64016663 0.59131589 0.43168075 0.71749974 0.59541636 0.45848779 0.48356648 0.65571268 0.49079447 1.0668703000000002 0.92914878 0.93902615
-1.8975843000000001 -2.1771748 -1.8727894 -1.7752904999999999 -1.6681586 -1.9333433 -1.4896118 -1.1507331 -1.0781561000000002 -0.77372316 -0.5202207 -0.20525277 -0.026608191 0.29905385 0.19431966 0.70179318 0.67189094 0.85378659 0.67685205 0.89891601 0.77225822 0.6498630999999999 0.63881629 0.67025023 1.0374359 0.43305326 0.65715862 0.52901327 0.56207051 1.0283513000000002 -0.019686467 1.1777618 0.84790423 0.16943202 0.67343368 0.6352647 0.74822003 0.64016663 0.59131589 0.43168075 0.71749974 0.59541636 0.45848779 0.48356648 0.65571268 0.49079447 1.0668703000000002 0.92914878 0.93902615 1.3121778999999998
-2.1771748 -1.8727894 -1.7752904999999999 -1.6681586 -1.9333433 -1.4896118 -1.1507331 -1.0781561000000002 -0.77372316 -0.5202207 -0.20525277 -0.026608191 0.29905385 0.19431966 0.70179318 0.67189094 0.85378659 0.67685205 0.89891601 0.77225822 0.6498630999999999 0.63881629 0.67025023 1.0374359 0.43305326 0.65715862 0.52901327 0.56207051 1.0283513000000002 -0.019686467 1.1777618 0.84790423 0.16943202 0.67343368 0.6352647 0.74822003 0.64016663 0.59131589 0.43168075 0.71749974 0.59541636 0.45848779 0.48356648 0.65571268 0.49079447 1.0668703000000002 0.92914878 0.93902615 1.3121778999999998 0.58060433
-1.8727894 -1.7752904999999999 -1.6681586 -1.9333433 -1.4896118 -1.1507331 -1.0781561000000002 -0.77372316 -0.5202207 -0.20525277 -0.026608191 0.29905385 0.19431966 0.70179318 0.67189094 0.85378659 0.67685205 0.89891601 0.77225822 0.6498630999999999 0.63881629 0.67025023 1.0374359 0.43305326 0.65715862 0.52901327 0.56207051 1.0283513000000002 -0.019686467 1.1777618 0.84790423 0.16943202 0.67343368 0.6352647 0.74822003 0.64016663 0.59131589 0.43168075 0.71749974 0.59541636 0.45848779 0.48356648 0.65571268 0.49079447 1.0668703000000002 0.92914878 0.93902615 1.3121778999999998 0.58060433 0.57095928
-1.7752904999999999 -1.6681586 -1.9333433 -1.4896118 -1.1507331 -1.0781561000000002 -0.77372316 -0.5202207 -0.20525277 -0.026608191 0.29905385 0.19431966 0.70179318 0.67189094 0.85378659 0.67685205 0.89891601 0.77225822 0.6498630999999999 0.63881629 0.67025023 1.0374359 0.43305326 0.65715862 0.52901327 0.56207051 1.0283513000000002 -0.019686467 1.1777618 0.84790423 0.16943202 0.67343368 0.6352647 0.74822003 0.64016663 0.59131589 0.43168075 0.71749974 0.59541636 0.45848779 0.48356648 0.65571268 0.49079447 1.0668703000000002 0.92914878 0.93902615 1.3121778999999998 0.58060433 0.57095928 0.52277452
-1.6681586 -1.9333433 -1.4896118 -1.1507331 -1.0781561000000002 -0.77372316 -0.5202207 -0.20525277 -0.026608191 0.29905385 0.19431966 0.70179318 0.67189094 0.85378659 0.67685205 0.89891601 0.77225822 0.6498630999999999 0.63881629 0.67025023 1.0374359 0.43305326 0.65715862 0.52901327 0.56207051 1.0283513000000002 -0.019686467 1.1777618 0.84790423 0.16943202 0.67343368 0.6352647 0.74822003 0.64016663 0.59131589 0.43168075 0.71749974 0.59541636 0.45848779 0.48356648 0.65571268 0.49079447 1.0668703000000002 0.92914878 0.93902615 1.3121778999999998 0.58060433 0.57095928 0.52277452 0.44632254
-1.9333433 -1.4896118 -1.1507331 -1.0781561000000002 -0.77372316 -0.5202207 -0.20525277 -0.026608191 0.29905385 0.19431966 0.70179318 0.67189094 0.85378659 0.67685205 0.89891601 0.77225822 0.6498630999999999 0.63881629 0.67025023 1.0374359 0.43305326 0.65715862 0.52901327 0.56207051 1.0283513000000002 -0.019686467 1.1777618 0.84790423 0.16943202 0.67343368 0.6352647 0.74822003 0.64016663 0.59131589 0.43168075 0.71749974 0.59541636 0.45848779 0.48356648 0.65571268 0.49079447 1.0668703000000002 0.92914878 0.93902615 1.3121778999999998 0.58060433 0.57095928 0.52277452 0.44632254 0.6206822
-1.4896118 -1.1507331 -1.0781561000000002 -0.77372316 -0.5202207 -0.20525277 -0.026608191 0.29905385 0.19431966 0.70179318 0.67189094 0.85378659 0.67685205 0.89891601 0.77225822 0.6498630999999999 0.63881629 0.67025023 1.0374359 0.43305326 0.65715862 0.52901327 0.56207051 1.0283513000000002 -0.019686467 1.1777618 0.84790423 0.16943202 0.67343368 0.6352647 0.74822003 0.64016663 0.59131589 0.43168075 0.71749974 0.59541636 0.45848779 0.48356648 0.65571268 0.49079447 1.0668703000000002 0.92914878 0.93902615 1.3121778999999998 0.58060433 0.57095928 0.52277452 0.44632254 0.6206822 0.049713371
-1.1507331 -1.0781561000000002 -0.77372316 -0.5202207 -0.20525277 -0.026608191 0.29905385 0.19431966 0.70179318 0.67189094 0.85378659 0.67685205 0.89891601 0.77225822 0.6498630999999999 0.63881629 0.67025023 1.0374359 0.43305326 0.65715862 0.52901327 0.56207051 1.0283513000000002 -0.019686467 1.1777618 0.84790423 0.16943202 0.67343368 0.6352647 0.74822003 0.64016663 0.59131589 0.43168075 0.71749974 0.59541636 0.45848779 0.48356648 0.65571268 0.49079447 1.0668703000000002 0.92914878 0.93902615 1.3121778999999998 0.58060433 0.57095928 0.52277452 0.44632254 0.6206822 0.049713371 0.2698563
-1.0781561000000002 -0.77372316 -0.5202207 -0.20525277 -0.026608191 0.29905385 0.19431966 0.70179318 0.67189094 0.85378659 0.67685205 0.89891601 0.77225822 0.6498630999999999 0.63881629 0.67025023 1.0374359 0.43305326 0.65715862 0.52901327 0.56207051 1.0283513000000002 -0.019686467 1.1777618 0.84790423 0.16943202 0.67343368 0.6352647 0.74822003 0.64016663 0.59131589 0.43168075 0.71749974 0.59541636 0.45848779 0.48356648 0.65571268 0.49079447 1.0668703000000002 0.92914878 0.93902615 1.3121778999999998 0.58060433 0.57095928 0.52277452 0.44632254 0.6206822 0.049713371 0.2698563 0.41891845
-0.77372316 -0.5202207 -0.20525277 -0.026608191 0.29905385 0.19431966 0.70179318 0.67189094 0.85378659 0.67685205 0.89891601 0.77225822 0.6498630999999999 0.63881629 0.67025023 1.0374359 0.43305326 0.65715862 0.52901327 0.56207051 1.0283513000000002 -0.019686467 1.1777618 0.84790423 0.16943202 0.67343368 0.6352647 0.74822003 0.64016663 0.59131589 0.43168075 0.71749974 0.59541636 0.45848779 0.48356648 0.65571268 0.49079447 1.0668703000000002 0.92914878 0.93902615 1.3121778999999998 0.58060433 0.57095928 0.52277452 0.44632254 0.6206822 0.049713371 0.2698563 0.41891845 -0.06434566900000001
-0.5202207 -0.20525277 -0.026608191 0.29905385 0.19431966 0.70179318 0.67189094 0.85378659 0.67685205 0.89891601 0.77225822 0.6498630999999999 0.63881629 0.67025023 1.0374359 0.43305326 0.65715862 0.52901327 0.56207051 1.0283513000000002 -0.019686467 1.1777618 0.84790423 0.16943202 0.67343368 0.6352647 0.74822003 0.64016663 0.59131589 0.43168075 0.71749974 0.59541636 0.45848779 0.48356648 0.65571268 0.49079447 1.0668703000000002 0.92914878 0.93902615 1.3121778999999998 0.58060433 0.57095928 0.52277452 0.44632254 0.6206822 0.049713371 0.2698563 0.41891845 -0.06434566900000001 0.37646912
-0.20525277 -0.026608191 0.29905385 0.19431966 0.70179318 0.67189094 0.85378659 0.67685205 0.89891601 0.77225822 0.6498630999999999 0.63881629 0.67025023 1.0374359 0.43305326 0.65715862 0.52901327 0.56207051 1.0283513000000002 -0.019686467 1.1777618 0.84790423 0.16943202 0.67343368 0.6352647 0.74822003 0.64016663 0.59131589 0.43168075 0.71749974 0.59541636 0.45848779 0.48356648 0.65571268 0.49079447 1.0668703000000002 0.92914878 0.93902615 1.3121778999999998 0.58060433 0.57095928 0.52277452 0.44632254 0.6206822 0.049713371 0.2698563 0.41891845 -0.06434566900000001 0.37646912 0.27781111
-0.026608191 0.29905385 0.19431966 0.70179318 0.67189094 0.85378659 0.67685205 0.89891601 0.77225822 0.6498630999999999 0.63881629 0.67025023 1.0374359 0.43305326 0.65715862 0.52901327 0.56207051 1.0283513000000002 -0.019686467 1.1777618 0.84790423 0.16943202 0.67343368 0.6352647 0.74822003 0.64016663 0.59131589 0.43168075 0.71749974 0.59541636 0.45848779 0.48356648 0.65571268 0.49079447 1.0668703000000002 0.92914878 0.93902615 1.3121778999999998 0.58060433 0.57095928 0.52277452 0.44632254 0.6206822 0.049713371 0.2698563 0.41891845 -0.06434566900000001 0.37646912 0.27781111 0.22567582
0.29905385 0.19431966 0.70179318 0.67189094 0.85378659 0.67685205 0.89891601 0.77225822 0.6498630999999999 0.63881629 0.67025023 1.0374359 0.43305326 0.65715862 0.52901327 0.56207051 1.0283513000000002 -0.019686467 1.1777618 0.84790423 0.16943202 0.67343368 0.6352647 0.74822003 0.64016663 0.59131589 0.43168075 0.71749974 0.59541636 0.45848779 0.48356648 0.65571268 0.49079447 1.0668703000000002 0.92914878 0.93902615 1.3121778999999998 0.58060433 0.57095928 0.52277452 0.44632254 0.6206822 0.049713371 0.2698563 0.41891845 -0.06434566900000001 0.37646912 0.27781111 0.22567582 0.15909081
0.19431966 0.70179318 0.67189094 0.85378659 0.67685205 0.89891601 0.77225822 0.6498630999999999 0.63881629 0.67025023 1.0374359 0.43305326 0.65715862 0.52901327 0.56207051 1.0283513000000002 -0.019686467 1.1777618 0.84790423 0.16943202 0.67343368 0.6352647 0.74822003 0.64016663 0.59131589 0.43168075 0.71749974 0.59541636 0.45848779 0.48356648 0.65571268 0.49079447 1.0668703000000002 0.92914878 0.93902615 1.3121778999999998 0.58060433 0.57095928 0.52277452 0.44632254 0.6206822 0.049713371 0.2698563 0.41891845 -0.06434566900000001 0.37646912 0.27781111 0.22567582 0.15909081 0.40835397
0.70179318 0.67189094 0.85378659 0.67685205 0.89891601 0.77225822 0.6498630999999999 0.63881629 0.67025023 1.0374359 0.43305326 0.65715862 0.52901327 0.56207051 1.0283513000000002 -0.019686467 1.1777618 0.84790423 0.16943202 0.67343368 0.6352647 0.74822003 0.64016663 0.59131589 0.43168075 0.71749974 0.59541636 0.45848779 0.48356648 0.65571268 0.49079447 1.0668703000000002 0.92914878 0.93902615 1.3121778999999998 0.58060433 0.57095928 0.52277452 0.44632254 0.6206822 0.049713371 0.2698563 0.41891845 -0.06434566900000001 0.37646912 0.27781111 0.22567582 0.15909081 0.40835397 0.54001519
0.67189094 0.85378659 0.67685205 0.89891601 0.77225822 0.6498630999999999 0.63881629 0.67025023 1.0374359 0.43305326 0.65715862 0.52901327 0.56207051 1.0283513000000002 -0.019686467 1.1777618 0.84790423 0.16943202 0.67343368 0.6352647 0.74822003 0.64016663 0.59131589 0.43168075 0.71749974 0.59541636 0.45848779 0.48356648 0.65571268 0.49079447 1.0668703000000002 0.92914878 0.93902615 1.3121778999999998 0.58060433 0.57095928 0.52277452 0.44632254 0.6206822 0.049713371 0.2698563 0.41891845 -0.06434566900000001 0.37646912 0.27781111 0.22567582 0.15909081 0.40835397 0.54001519 -0.027791159
0.85378659 0.67685205 0.89891601 0.77225822 0.6498630999999999 0.63881629 0.67025023 1.0374359 0.43305326 0.65715862 0.52901327 0.56207051 1.0283513000000002 -0.019686467 1.1777618 0.84790423 0.16943202 0.67343368 0.6352647 0.74822003 0.64016663 0.59131589 0.43168075 0.71749974 0.59541636 0.45848779 0.48356648 0.65571268 0.49079447 1.0668703000000002 0.92914878 0.93902615 1.3121778999999998 0.58060433 0.57095928 0.52277452 0.44632254 0.6206822 0.049713371 0.2698563 0.41891845 -0.06434566900000001 0.37646912 0.27781111 0.22567582 0.15909081 0.40835397 0.54001519 -0.027791159 0.20347623
0.67685205 0.89891601 0.77225822 0.6498630999999999 0.63881629 0.67025023 1.0374359 0.43305326 0.65715862 0.52901327 0.56207051 1.0283513000000002 -0.019686467 1.1777618 0.84790423 0.16943202 0.67343368 0.6352647 0.74822003 0.64016663 0.59131589 0.43168075 0.71749974 0.59541636 0.45848779 0.48356648 0.65571268 0.49079447 1.0668703000000002 0.92914878 0.93902615 1.3121778999999998 0.58060433 0.57095928 0.52277452 0.44632254 0.6206822 0.049713371 0.2698563 0.41891845 -0.06434566900000001 0.37646912 0.27781111 0.22567582 0.15909081 0.40835397 0.54001519 -0.027791159 0.20347623 0.34696389
0.89891601 0.77225822 0.6498630999999999 0.63881629 0.67025023 1.0374359 0.43305326 0.65715862 0.52901327 0.56207051 1.0283513000000002 -0.019686467 1.1777618 0.84790423 0.16943202 0.67343368 0.6352647 0.74822003 0.64016663 0.59131589 0.43168075 0.71749974 0.59541636 0.45848779 0.48356648 0.65571268 0.49079447 1.0668703000000002 0.92914878 0.93902615 1.3121778999999998 0.58060433 0.57095928 0.52277452 0.44632254 0.6206822 0.049713371 0.2698563 0.41891845 -0.06434566900000001 0.37646912 0.27781111 0.22567582 0.15909081 0.40835397 0.54001519 -0.027791159 0.20347623 0.34696389 0.33918469
