1.1685633 1.8563351000000003 2.1545365000000003 2.3218257999999996 1.9164374 1.2148809999999999 0.52682367 0.30918951 0.61779774 0.76545115 0.69202363 0.83157467 0.85853066 0.37871281 -0.21882916 -0.54759978 -0.57829007 -0.57036241 -0.82642609 -1.0418231 -0.7989705 -0.79339385 -1.1716008 -1.2151115 -1.305476 -1.5137317 -1.4558355 -1.6207633 -1.8120478 -1.7640156000000002 -2.0627722 -2.2859142000000006 -2.1082389 -2.1224856 -2.1131536 -1.9369656000000002 -1.7960732 -1.5180592 -1.4170015 -1.2032011 -0.48419464 -0.2469919 -0.21486007 0.17800355 0.15326628 0.34652261 0.5602158 0.43173761 0.43292827 0.31104039
1.8563351000000003 2.1545365000000003 2.3218257999999996 1.9164374 1.2148809999999999 0.52682367 0.30918951 0.61779774 0.76545115 0.69202363 0.83157467 0.85853066 0.37871281 -0.21882916 -0.54759978 -0.57829007 -0.57036241 -0.82642609 -1.0418231 -0.7989705 -0.79339385 -1.1716008 -1.2151115 -1.305476 -1.5137317 -1.4558355 -1.6207633 -1.8120478 -1.7640156000000002 -2.0627722 -2.2859142000000006 -2.1082389 -2.1224856 -2.1131536 -1.9369656000000002 -1.7960732 -1.5180592 -1.4170015 -1.2032011 -0.48419464 -0.2469919 -0.21486007 0.17800355 0.15326628 0.34652261 0.5602158 0.43173761 0.43292827 0.31104039 0.46511094
2.1545365000000003 2.3218257999999996 1.9164374 1.2148809999999999 0.52682367 0.30918951 0.61779774 0.76545115 0.69202363 0.83157467 0.85853066 0.37871281 -0.21882916 -0.54759978 -0.57829007 -0.57036241 -0.82642609 -1.0418231 -0.7989705 -0.79339385 -1.1716008 -1.2151115 -1.305476 -1.5137317 -1.4558355 -1.6207633 -1.8120478 -1.7640156000000002 -2.0627722 -2.2859142000000006 -2.1082389 -2.1224856 -2.1131536 -1.9369656000000002 -1.7960732 -1.5180592 -1.4170015 -1.2032011 -0.48419464 -0.2469919 -0.21486007 0.17800355 0.15326628 0.34652261 0.5602158 0.43173761 0.43292827 0.31104039 0.46511094 0.80842949
2.3218257999999996 1.9164374 1.2148809999999999 0.52682367 0.30918951 0.61779774 0.76545115 0.69202363 0.83157467 0.85853066 0.37871281 -0.21882916 -0.54759978 -0.57829007 -0.57036241 -0.82642609 -1.0418231 -0.7989705 -0.79339385 -1.1716008 -1.2151115 -1.305476 -1.5137317 -1.4558355 -1.6207633 -1.8120478 -1.7640156000000002 -2.0627722 -2.2859142000000006 -2.1082389 -2.1224856 -2.1131536 -1.9369656000000002 -1.7960732 -1.5180592 -1.4170015 -1.2032011 -0.48419464 -0.2469919 -0.21486007 0.17800355 0.15326628 0.34652261 0.5602158 0.43173761 0.43292827 0.31104039 0.46511094 0.80842949 0.75977671
1.9164374 1.2148809999999999 0.52682367 0.30918951 0.61779774 0.76545115 0.69202363 0.83157467 0.85853066 0.37871281 -0.21882916 -0.54759978 -0.57829007 -0.57036241 -0.82642609 -1.0418231 -0.7989705 -0.79339385 -1.1716008 -1.2151115 -1.305476 -1.5137317 -1.4558355 -1.6207633 -1.8120478 -1.7640156000000002 -2.0627722 -2.2859142000000006 -2.1082389 -2.1224856 -2.1131536 -1.9369656000000002 -1.7960732 -1.5180592 -1.4170015 -1.2032011 -0.48419464 -0.2469919 -0.21486007 0.17800355 0.15326628 0.34652261 0.5602158 0.43173761 0.43292827 0.31104039 0.46511094 0.80842949 0.75977671 0.55031466
1.2148809999999999 0.52682367 0.30918951 0.61779774 0.76545115 0.69202363 0.83157467 0.85853066 0.37871281 -0.21882916 -0.54759978 -0.57829007 -0.57036241 -0.82642609 -1.0418231 -0.7989705 -0.79339385 -1.1716008 -1.2151115 -1.305476 -1.5137317 -1.4558355 -1.6207633 -1.8120478 -1.7640156000000002 -2.0627722 -2.2859142000000006 -2.1082389 -2.1224856 -2.1131536 -1.9369656000000002 -1.7960732 -1.5180592 -1.4170015 -1.2032011 -0.48419464 -0.2469919 -0.21486007 0.17800355 0.15326628 0.34652261 0.5602158 0.43173761 0.43292827 0.31104039 0.46511094 0.80842949 0.75977671 0.55031466 0.48885185
0.52682367 0.30918951 0.61779774 0.76545115 0.69202363 0.83157467 0.85853066 0.37871281 -0.21882916 -0.54759978 -0.57829007 -0.57036241 -0.82642609 -1.0418231 -0.7989705 -0.79339385 -1.1716008 -1.2151115 -1.305476 -1.5137317 -1.4558355 -1.6207633 -1.8120478 -1.7640156000000002 -2.0627722 -2.2859142000000006 -2.1082389 -2.1224856 -2.1131536 -1.9369656000000002 -1.7960732 -1.5180592 -1.4170015 -1.2032011 -0.48419464 -0.2469919 -0.21486007 0.17800355 0.15326628 0.34652261 0.5602158 0.43173761 0.43292827 0.31104039 0.46511094 0.80842949 0.75977671 0.55031466 0.48885185 0.72413274
0.30918951 0.61779774 0.76545115 0.69202363 0.83157467 0.85853066 0.37871281 -0.21882916 -0.54759978 -0.57829007 -0.57036241 -0.82642609 -1.0418231 -0.7989705 -0.79339385 -1.1716008 -1.2151115 -1.305476 -1.5137317 -1.4558355 -1.6207633 -1.8120478 -1.7640156000000002 -2.0627722 -2.2859142000000006 -2.1082389 -2.1224856 -2.1131536 -1.9369656000000002 -1.7960732 -1.5180592 -1.4170015 -1.2032011 -0.48419464 -0.2469919 -0.21486007 0.17800355 0.15326628 0.34652261 0.5602158 0.43173761 0.43292827 0.31104039 0.46511094 0.80842949 0.75977671 0.55031466 0.48885185 0.72413274 0.75093312
0.61779774 0.76545115 0.69202363 0.83157467 0.85853066 0.37871281 -0.21882916 -0.54759978 -0.57829007 -0.57036241 -0.82642609 -1.0418231 -0.7989705 -0.79339385 -1.1716008 -1.2151115 -1.305476 -1.5137317 -1.4558355 -1.6207633 -1.8120478 -1.7640156000000002 -2.0627722 -2.2859142000000006 -2.1082389 -2.1224856 -2.1131536 -1.9369656000000002 -1.7960732 -1.5180592 -1.4170015 -1.2032011 -0.48419464 -0.2469919 -0.21486007 0.17800355 0.15326628 0.34652261 0.5602158 0.43173761 0.43292827 0.31104039 0.46511094 0.80842949 0.75977671 0.55031466 0.48885185 0.72413274 0.75093312 0.63100588
0.76545115 0.69202363 0.83157467 0.85853066 0.37871281 -0.21882916 -0.54759978 -0.57829007 -0.57036241 -0.82642609 -1.0418231 -0.7989705 -0.79339385 -1.1716008 -1.2151115 -1.305476 -1.5137317 -1.4558355 -1.6207633 -1.8120478 -1.7640156000000002 -2.0627722 -2.2859142000000006 -2.1082389 -2.1224856 -2.1131536 -1.9369656000000002 -1.7960732 -1.5180592 -1.4170015 -1.2032011 -0.48419464 -0.2469919 -0.21486007 0.17800355 0.15326628 0.34652261 0.5602158 0.43173761 0.43292827 0.31104039 0.46511094 0.80842949 0.75977671 0.55031466 0.48885185 0.72413274 0.75093312 0.63100588 0.71781997
0.69202363 0.83157467 0.85853066 0.37871281 -0.21882916 -0.54759978 -0.57829007 -0.57036241 -0.82642609 -1.0418231 -0.7989705 -0.79339385 -1.1716008 -1.2151115 -1.305476 -1.5137317 -1.4558355 -1.6207633 -1.8120478 -1.7640156000000002 -2.0627722 -2.2859142000000006 -2.1082389 -2.1224856 -2.1131536 -1.9369656000000002 -1.7960732 -1.5180592 -1.4170015 -1.2032011 -0.48419464 -0.2469919 -0.21486007 0.17800355 0.15326628 0.34652261 0.5602158 0.43173761 0.43292827 0.31104039 0.46511094 0.80842949 0.75977671 0.55031466 0.48885185 0.72413274 0.75093312 0.63100588 0.71781997 0.6192352
0.83157467 0.85853066 0.37871281 -0.21882916 -0.54759978 -0.57829007 -0.57036241 -0.82642609 -1.0418231 -0.7989705 -0.79339385 -1.1716008 -1.2151115 -1.305476 -1.5137317 -1.4558355 -1.6207633 -1.8120478 -1.7640156000000002 -2.0627722 -2.2859142000000006 -2.1082389 -2.1224856 -2.1131536 -1.9369656000000002 -1.7960732 -1.5180592 -1.4170015 -1.2032011 -0.48419464 -0.2469919 -0.21486007 0.17800355 0.15326628 0.34652261 0.5602158 0.43173761 0.43292827 0.31104039 0.46511094 0.80842949 0.75977671 0.55031466 0.48885185 0.72413274 0.75093312 0.63100588 0.71781997 0.6192352 0.47629716
0.85853066 0.37871281 -0.21882916 -0.54759978 -0.57829007 -0.57036241 -0.82642609 -1.0418231 -0.7989705 -0.79339385 -1.1716008 -1.2151115 -1.305476 -1.5137317 -1.4558355 -1.6207633 -1.8120478 -1.7640156000000002 -2.0627722 -2.2859142000000006 -2.1082389 -2.1224856 -2.1131536 -1.9369656000000002 -1.7960732 -1.5180592 -1.4170015 -1.2032011 -0.48419464 -0.2469919 -0.21486007 0.17800355 0.15326628 0.34652261 0.5602158 0.43173761 0.43292827 0.31104039 0.46511094 0.80842949 0.75977671 0.55031466 0.48885185 0.72413274 0.75093312 0.63100588 0.71781997 0.6192352 0.47629716 0.62541035
0.37871281 -0.21882916 -0.54759978 -0.57829007 -0.57036241 -0.82642609 -1.0418231 -0.7989705 -0.79339385 -1.1716008 -1.2151115 -1.305476 -1.5137317 -1.4558355 -1.6207633 -1.8120478 -1.7640156000000002 -2.0627722 -2.2859142000000006 -2.1082389 -2.1224856 -2.1131536 -1.9369656000000002 -1.7960732 -1.5180592 -1.4170015 -1.2032011 -0.48419464 -0.2469919 -0.21486007 0.17800355 0.15326628 0.34652261 0.5602158 0.43173761 0.43292827 0.31104039 0.46511094 0.80842949 0.75977671 0.55031466 0.48885185 0.72413274 0.75093312 0.63100588 0.71781997 0.6192352 0.47629716 0.62541035 0.64715893
-0.21882916 -0.54759978 -0.57829007 -0.57036241 -0.82642609 -1.0418231 -0.7989705 -0.79339385 -1.1716008 -1.2151115 -1.305476 -1.5137317 -1.4558355 -1.6207633 -1.8120478 -1.7640156000000002 -2.0627722 -2.2859142000000006 -2.1082389 -2.1224856 -2.1131536 -1.9369656000000002 -1.7960732 -1.5180592 -1.4170015 -1.2032011 -0.48419464 -0.2469919 -0.21486007 0.17800355 0.15326628 0.34652261 0.5602158 0.43173761 0.43292827 0.31104039 0.46511094 0.80842949 0.75977671 0.55031466 0.48885185 0.72413274 0.75093312 0.63100588 0.71781997 0.6192352 0.47629716 0.62541035 0.64715893 0.53358724
-0.54759978 -0.57829007 -0.57036241 -0.82642609 -1.0418231 -0.7989705 -0.79339385 -1.1716008 -1.2151115 -1.305476 -1.5137317 -1.4558355 -1.6207633 -1.8120478 -1.7640156000000002 -2.0627722 -2.2859142000000006 -2.1082389 -2.1224856 -2.1131536 -1.9369656000000002 -1.7960732 -1.5180592 -1.4170015 -1.2032011 -0.48419464 -0.2469919 -0.21486007 0.17800355 0.15326628 0.34652261 0.5602158 0.43173761 0.43292827 0.31104039 0.46511094 0.80842949 0.75977671 0.55031466 0.48885185 0.72413274 0.75093312 0.63100588 0.71781997 0.6192352 0.47629716 0.62541035 0.64715893 0.53358724 0.77102669
-0.57829007 -0.57036241 -0.82642609 -1.0418231 -0.7989705 -0.79339385 -1.1716008 -1.2151115 -1.305476 -1.5137317 -1.4558355 -1.6207633 -1.8120478 -1.7640156000000002 -2.0627722 -2.2859142000000006 -2.1082389 -2.1224856 -2.1131536 -1.9369656000000002 -1.7960732 -1.5180592 -1.4170015 -1.2032011 -0.48419464 -0.2469919 -0.21486007 0.17800355 0.15326628 0.34652261 0.5602158 0.43173761 0.43292827 0.31104039 0.46511094 0.80842949 0.75977671 0.55031466 0.48885185 0.72413274 0.75093312 0.63100588 0.71781997 0.6192352 0.47629716 0.62541035 0.64715893 0.53358724 0.77102669 0.80847799
-0.57036241 -0.82642609 -1.0418231 -0.7989705 -0.79339385 -1.1716008 -1.2151115 -1.305476 -1.5137317 -1.4558355 -1.6207633 -1.8120478 -1.7640156000000002 -2.0627722 -2.2859142000000006 -2.1082389 -2.1224856 -2.1131536 -1.9369656000000002 -1.7960732 -1.5180592 -1.4170015 -1.2032011 -0.48419464 -0.2469919 -0.21486007 0.17800355 0.15326628 0.34652261 0.5602158 0.43173761 0.43292827 0.31104039 0.46511094 0.80842949 0.75977671 0.55031466 0.48885185 0.72413274 0.75093312 0.63100588 0.71781997 0.6192352 0.47629716 0.62541035 0.64715893 0.53358724 0.77102669 0.80847799 0.45094397
-0.82642609 -1.0418231 -0.7989705 -0.79339385 -1.1716008 -1.2151115 -1.305476 -1.5137317 -1.4558355 -1.6207633 -1.8120478 -1.7640156000000002 -2.0627722 -2.2859142000000006 -2.1082389 -2.1224856 -2.1131536 -1.9369656000000002 -1.7960732 -1.5180592 -1.4170015 -1.2032011 -0.48419464 -0.2469919 -0.21486007 0.17800355 0.15326628 0.34652261 0.5602158 0.43173761 0.43292827 0.31104039 0.46511094 0.80842949 0.75977671 0.55031466 0.48885185 0.72413274 0.75093312 0.63100588 0.71781997 0.6192352 0.47629716 0.62541035 0.64715893 0.53358724 0.77102669 0.80847799 0.45094397 0.57542273
-1.0418231 -0.7989705 -0.79339385 -1.1716008 -1.2151115 -1.305476 -1.5137317 -1.4558355 -1.6207633 -1.8120478 -1.7640156000000002 -2.0627722 -2.2859142000000006 -2.1082389 -2.1224856 -2.1131536 -1.9369656000000002 -1.7960732 -1.5180592 -1.4170015 -1.2032011 -0.48419464 -0.2469919 -0.21486007 0.17800355 0.15326628 0.34652261 0.5602158 0.43173761 0.43292827 0.31104039 0.46511094 0.80842949 0.75977671 0.55031466 0.48885185 0.72413274 0.75093312 0.63100588 0.71781997 0.6192352 0.47629716 0.62541035 0.64715893 0.53358724 0.77102669 0.80847799 0.45094397 0.57542273 0.70451729
-0.7989705 -0.79339385 -1.1716008 -1.2151115 -1.305476 -1.5137317 -1.4558355 -1.6207633 -1.8120478 -1.7640156000000002 -2.0627722 -2.2859142000000006 -2.1082389 -2.1224856 -2.1131536 -1.9369656000000002 -1.7960732 -1.5180592 -1.4170015 -1.2032011 -0.48419464 -0.2469919 -0.21486007 0.17800355 0.15326628 0.34652261 0.5602158 0.43173761 0.43292827 0.31104039 0.46511094 0.80842949 0.75977671 0.55031466 0.48885185 0.72413274 0.75093312 0.63100588 0.71781997 0.6192352 0.47629716 0.62541035 0.64715893 0.53358724 0.77102669 0.80847799 0.45094397 0.57542273 0.70451729 0.60622152
-0.79339385 -1.1716008 -1.2151115 -1.305476 -1.5137317 -1.4558355 -1.6207633 -1.8120478 -1.7640156000000002 -2.0627722 -2.2859142000000006 -2.1082389 -2.1224856 -2.1131536 -1.9369656000000002 -1.7960732 -1.5180592 -1.4170015 -1.2032011 -0.48419464 -0.2469919 -0.21486007 0.17800355 0.15326628 0.34652261 0.5602158 0.43173761 0.43292827 0.31104039 0.46511094 0.80842949 0.75977671 0.55031466 0.48885185 0.72413274 0.75093312 0.63100588 0.71781997 0.6192352 0.47629716 0.62541035 0.64715893 0.53358724 0.77102669 0.80847799 0.45094397 0.57542273 0.70451729 0.60622152 0.73263084
-1.1716008 -1.2151115 -1.305476 -1.5137317 -1.4558355 -1.6207633 -1.8120478 -1.7640156000000002 -2.0627722 -2.2859142000000006 -2.1082389 -2.1224856 -2.1131536 -1.9369656000000002 -1.7960732 -1.5180592 -1.4170015 -1.2032011 -0.48419464 -0.2469919 -0.21486007 0.17800355 0.15326628 0.34652261 0.5602158 0.43173761 0.43292827 0.31104039 0.46511094 0.80842949 0.75977671 0.55031466 0.48885185 0.72413274 0.75093312 0.63100588 0.71781997 0.6192352 0.47629716 0.62541035 0.64715893 0.53358724 0.77102669 0.80847799 0.45094397 0.57542273 0.70451729 0.60622152 0.73263084 0.61479159
-1.2151115 -1.305476 -1.5137317 -1.4558355 -1.6207633 -1.8120478 -1.7640156000000002 -2.0627722 -2.2859142000000006 -2.1082389 -2.1224856 -2.1131536 -1.9369656000000002 -1.7960732 -1.5180592 -1.4170015 -1.2032011 -0.48419464 -0.2469919 -0.21486007 0.17800355 0.15326628 0.34652261 0.5602158 0.43173761 0.43292827 0.31104039 0.46511094 0.80842949 0.75977671 0.55031466 0.48885185 0.72413274 0.75093312 0.63100588 0.71781997 0.6192352 0.47629716 0.62541035 0.64715893 0.53358724 0.77102669 0.80847799 0.45094397 0.57542273 0.70451729 0.60622152 0.73263084 0.61479159 0.78328362
-1.305476 -1.5137317 -1.4558355 -1.6207633 -1.8120478 -1.7640156000000002 -2.0627722 -2.2859142000000006 -2.1082389 -2.1224856 -2.1131536 -1.9369656000000002 -1.7960732 -1.5180592 -1.4170015 -1.2032011 -0.48419464 -0.2469919 -0.21486007 0.17800355 0.15326628 0.34652261 0.5602158 0.43173761 0.43292827 0.31104039 0.46511094 0.80842949 0.75977671 0.55031466 0.48885185 0.72413274 0.75093312 0.63100588 0.71781997 0.6192352 0.47629716 0.62541035 0.64715893 0.53358724 0.77102669 0.80847799 0.45094397 0.57542273 0.70451729 0.60622152 0.73263084 0.61479159 0.78328362 0.9028789
-1.5137317 -1.4558355 -1.6207633 -1.8120478 -1.7640156000000002 -2.0627722 -2.2859142000000006 -2.1082389 -2.1224856 -2.1131536 -1.9369656000000002 -1.7960732 -1.5180592 -1.4170015 -1.2032011 -0.48419464 -0.2469919 -0.21486007 0.17800355 0.15326628 0.34652261 0.5602158 0.43173761 0.43292827 0.31104039 0.46511094 0.80842949 0.75977671 0.55031466 0.48885185 0.72413274 0.75093312 0.63100588 0.71781997 0.6192352 0.47629716 0.62541035 0.64715893 0.53358724 0.77102669 0.80847799 0.45094397 0.57542273 0.70451729 0.60622152 0.73263084 0.61479159 0.78328362 0.9028789 0.58169505
-1.4558355 -1.6207633 -1.8120478 -1.7640156000000002 -2.0627722 -2.2859142000000006 -2.1082389 -2.1224856 -2.1131536 -1.9369656000000002 -1.7960732 -1.5180592 -1.4170015 -1.2032011 -0.48419464 -0.2469919 -0.21486007 0.17800355 0.15326628 0.34652261 0.5602158 0.43173761 0.43292827 0.31104039 0.46511094 0.80842949 0.75977671 0.55031466 0.48885185 0.72413274 0.75093312 0.63100588 0.71781997 0.6192352 0.47629716 0.62541035 0.64715893 0.53358724 0.77102669 0.80847799 0.45094397 0.57542273 0.70451729 0.60622152 0.73263084 0.61479159 0.78328362 0.9028789 0.58169505 0.64803104
-1.6207633 -1.8120478 -1.7640156000000002 -2.0627722 -2.2859142000000006 -2.1082389 -2.1224856 -2.1131536 -1.9369656000000002 -1.7960732 -1.5180592 -1.4170015 -1.2032011 -0.48419464 -0.2469919 -0.21486007 0.17800355 0.15326628 0.34652261 0.5602158 0.43173761 0.43292827 0.31104039 0.46511094 0.80842949 0.75977671 0.55031466 0.48885185 0.72413274 0.75093312 0.63100588 0.71781997 0.6192352 0.47629716 0.62541035 0.64715893 0.53358724 0.77102669 0.80847799 0.45094397 0.57542273 0.70451729 0.60622152 0.73263084 0.61479159 0.78328362 0.9028789 0.58169505 0.64803104 0.72286437
-1.8120478 -1.7640156000000002 -2.0627722 -2.2859142000000006 -2.1082389 -2.1224856 -2.1131536 -1.9369656000000002 -1.7960732 -1.5180592 -1.4170015 -1.2032011 -0.48419464 -0.2469919 -0.21486007 0.17800355 0.15326628 0.34652261 0.5602158 0.43173761 0.43292827 0.31104039 0.46511094 0.80842949 0.75977671 0.55031466 0.48885185 0.72413274 0.75093312 0.63100588 0.71781997 0.6192352 0.47629716 0.62541035 0.64715893 0.53358724 0.77102669 0.80847799 0.45094397 0.57542273 0.70451729 0.60622152 0.73263084 0.61479159 0.78328362 0.9028789 0.58169505 0.64803104 0.72286437 0.54406191
-1.7640156000000002 -2.0627722 -2.2859142000000006 -2.1082389 -2.1224856 -2.1131536 -1.9369656000000002 -1.7960732 -1.5180592 -1.4170015 -1.2032011 -0.48419464 -0.2469919 -0.21486007 0.17800355 0.15326628 0.34652261 0.5602158 0.43173761 0.43292827 0.31104039 0.46511094 0.80842949 0.75977671 0.55031466 0.48885185 0.72413274 0.75093312 0.63100588 0.71781997 0.6192352 0.47629716 0.62541035 0.64715893 0.53358724 0.77102669 0.80847799 0.45094397 0.57542273 0.70451729 0.60622152 0.73263084 0.61479159 0.78328362 0.9028789 0.58169505 0.64803104 0.72286437 0.54406191 0.27844715
-2.0627722 -2.2859142000000006 -2.1082389 -2.1224856 -2.1131536 -1.9369656000000002 -1.7960732 -1.5180592 -1.4170015 -1.2032011 -0.48419464 -0.2469919 -0.21486007 0.17800355 0.15326628 0.34652261 0.5602158 0.43173761 0.43292827 0.31104039 0.46511094 0.80842949 0.75977671 0.55031466 0.48885185 0.72413274 0.75093312 0.63100588 0.71781997 0.6192352 0.47629716 0.62541035 0.64715893 0.53358724 0.77102669 0.80847799 0.45094397 0.57542273 0.70451729 0.60622152 0.73263084 0.61479159 0.78328362 0.9028789 0.58169505 0.64803104 0.72286437 0.54406191 0.27844715 0.11675102
-2.2859142000000006 -2.1082389 -2.1224856 -2.1131536 -1.9369656000000002 -1.7960732 -1.5180592 -1.4170015 -1.2032011 -0.48419464 -0.2469919 -0.21486007 0.17800355 0.15326628 0.34652261 0.5602158 0.43173761 0.43292827 0.31104039 0.46511094 0.80842949 0.75977671 0.55031466 0.48885185 0.72413274 0.75093312 0.63100588 0.71781997 0.6192352 0.47629716 0.62541035 0.64715893 0.53358724 0.77102669 0.80847799 0.45094397 0.57542273 0.70451729 0.60622152 0.73263084 0.61479159 0.78328362 0.9028789 0.58169505 0.64803104 0.72286437 0.54406191 0.27844715 0.11675102 0.1264548
-2.1082389 -2.1224856 -2.1131536 -1.9369656000000002 -1.7960732 -1.5180592 -1.4170015 -1.2032011 -0.48419464 -0.2469919 -0.21486007 0.17800355 0.15326628 0.34652261 0.5602158 0.43173761 0.43292827 0.31104039 0.46511094 0.80842949 0.75977671 0.55031466 0.48885185 0.72413274 0.75093312 0.63100588 0.71781997 0.6192352 0.47629716 0.62541035 0.64715893 0.53358724 0.77102669 0.80847799 0.45094397 0.57542273 0.70451729 0.60622152 0.73263084 0.61479159 0.78328362 0.9028789 0.58169505 0.64803104 0.72286437 0.54406191 0.27844715 0.11675102 0.1264548 0.15856689999999998
-2.1224856 -2.1131536 -1.9369656000000002 -1.7960732 -1.5180592 -1.4170015 -1.2032011 -0.48419464 -0.2469919 -0.21486007 0.17800355 0.15326628 0.34652261 0.5602158 0.43173761 0.43292827 0.31104039 0.46511094 0.80842949 0.75977671 0.55031466 0.48885185 0.72413274 0.75093312 0.63100588 0.71781997 0.6192352 0.47629716 0.62541035 0.64715893 0.53358724 0.77102669 0.80847799 0.45094397 0.57542273 0.70451729 0.60622152 0.73263084 0.61479159 0.78328362 0.9028789 0.58169505 0.64803104 0.72286437 0.54406191 0.27844715 0.11675102 0.1264548 0.15856689999999998 0.26965904
-2.1131536 -1.9369656000000002 -1.7960732 -1.5180592 -1.4170015 -1.2032011 -0.48419464 -0.2469919 -0.21486007 0.17800355 0.15326628 0.34652261 0.5602158 0.43173761 0.43292827 0.31104039 0.46511094 0.80842949 0.75977671 0.55031466 0.48885185 0.72413274 0.75093312 0.63100588 0.71781997 0.6192352 0.47629716 0.62541035 0.64715893 0.53358724 0.77102669 0.80847799 0.45094397 0.57542273 0.70451729 0.60622152 0.73263084 0.61479159 0.78328362 0.9028789 0.58169505 0.64803104 0.72286437 0.54406191 0.27844715 0.11675102 0.1264548 0.15856689999999998 0.26965904 -0.018007492
-1.9369656000000002 -1.7960732 -1.5180592 -1.4170015 -1.2032011 -0.48419464 -0.2469919 -0.21486007 0.17800355 0.15326628 0.34652261 0.5602158 0.43173761 0.43292827 0.31104039 0.46511094 0.80842949 0.75977671 0.55031466 0.48885185 0.72413274 0.75093312 0.63100588 0.71781997 0.6192352 0.47629716 0.62541035 0.64715893 0.53358724 0.77102669 0.80847799 0.45094397 0.57542273 0.70451729 0.60622152 0.73263084 0.61479159 0.78328362 0.9028789 0.58169505 0.64803104 0.72286437 0.54406191 0.27844715 0.11675102 0.1264548 0.15856689999999998 0.26965904 -0.018007492 0.013914038
-1.7960732 -1.5180592 -1.4170015 -1.2032011 -0.48419464 -0.2469919 -0.21486007 0.17800355 0.15326628 0.34652261 0.5602158 0.43173761 0.43292827 0.31104039 0.46511094 0.80842949 0.75977671 0.55031466 0.48885185 0.72413274 0.75093312 0.63100588 0.71781997 0.6192352 0.47629716 0.62541035 0.64715893 0.53358724 0.77102669 0.80847799 0.45094397 0.57542273 0.70451729 0.60622152 0.73263084 0.61479159 0.78328362 0.9028789 0.58169505 0.64803104 0.72286437 0.54406191 0.27844715 0.11675102 0.1264548 0.15856689999999998 0.26965904 -0.018007492 0.013914038 0.20245165
-1.5180592 -1.4170015 -1.2032011 -0.48419464 -0.2469919 -0.21486007 0.17800355 0.15326628 0.34652261 0.5602158 0.43173761 0.43292827 0.31104039 0.46511094 0.80842949 0.75977671 0.55031466 0.48885185 0.72413274 0.75093312 0.63100588 0.71781997 0.6192352 0.47629716 0.62541035 0.64715893 0.53358724 0.77102669 0.80847799 0.45094397 0.57542273 0.70451729 0.60622152 0.73263084 0.61479159 0.78328362 0.9028789 0.58169505 0.64803104 0.72286437 0.54406191 0.27844715 0.11675102 0.1264548 0.15856689999999998 0.26965904 -0.018007492 0.013914038 0.20245165 -0.17801548
-1.4170015 -1.2032011 -0.48419464 -0.2469919 -0.21486007 0.17800355 0.15326628 0.34652261 0.5602158 0.43173761 0.43292827 0.31104039 0.46511094 0.80842949 0.75977671 0.55031466 0.48885185 0.72413274 0.75093312 0.63100588 0.71781997 0.6192352 0.47629716 0.62541035 0.64715893 0.53358724 0.77102669 0.80847799 0.45094397 0.57542273 0.70451729 0.60622152 0.73263084 0.61479159 0.78328362 0.9028789 0.58169505 0.64803104 0.72286437 0.54406191 0.27844715 0.11675102 0.1264548 0.15856689999999998 0.26965904 -0.018007492 0.013914038 0.20245165 -0.17801548 -0.047374373
-1.2032011 -0.48419464 -0.2469919 -0.21486007 0.17800355 0.15326628 0.34652261 0.5602158 0.43173761 0.43292827 0.31104039 0.46511094 0.80842949 0.75977671 0.55031466 0.48885185 0.72413274 0.75093312 0.63100588 0.71781997 0.6192352 0.47629716 0.62541035 0.64715893 0.53358724 0.77102669 0.80847799 0.45094397 0.57542273 0.70451729 0.60622152 0.73263084 0.61479159 0.78328362 0.9028789 0.58169505 0.64803104 0.72286437 0.54406191 0.27844715 0.11675102 0.1264548 0.15856689999999998 0.26965904 -0.018007492 0.013914038 0.20245165 -0.17801548 -0.047374373 -0.090093265
-0.48419464 -0.2469919 -0.21486007 0.17800355 0.15326628 0.34652261 0.5602158 0.43173761 0.43292827 0.31104039 0.46511094 0.80842949 0.75977671 0.55031466 0.48885185 0.72413274 0.75093312 0.63100588 0.71781997 0.6192352 0.47629716 0.62541035 0.64715893 0.53358724 0.77102669 0.80847799 0.45094397 0.57542273 0.70451729 0.60622152 0.73263084 0.61479159 0.78328362 0.9028789 0.58169505 0.64803104 0.72286437 0.54406191 0.27844715 0.11675102 0.1264548 0.15856689999999998 0.26965904 -0.018007492 0.013914038 0.20245165 -0.17801548 -0.047374373 -0.090093265 -0.30912979999999995
-0.2469919 -0.21486007 0.17800355 0.15326628 0.34652261 0.5602158 0.43173761 0.43292827 0.31104039 0.46511094 0.80842949 0.75977671 0.55031466 0.48885185 0.72413274 0.75093312 0.63100588 0.71781997 0.6192352 0.47629716 0.62541035 0.64715893 0.53358724 0.77102669 0.80847799 0.45094397 0.57542273 0.70451729 0.60622152 0.73263084 0.61479159 0.78328362 0.9028789 0.58169505 0.64803104 0.72286437 0.54406191 0.27844715 0.11675102 0.1264548 0.15856689999999998 0.26965904 -0.018007492 0.013914038 0.20245165 -0.17801548 -0.047374373 -0.090093265 -0.30912979999999995 -0.02871342
-0.21486007 0.17800355 0.15326628 0.34652261 0.5602158 0.43173761 0.43292827 0.31104039 0.46511094 0.80842949 0.75977671 0.55031466 0.48885185 0.72413274 0.75093312 0.63100588 0.71781997 0.6192352 0.47629716 0.62541035 0.64715893 0.53358724 0.77102669 0.80847799 0.45094397 0.57542273 0.70451729 0.60622152 0.73263084 0.61479159 0.78328362 0.9028789 0.58169505 0.64803104 0.72286437 0.54406191 0.27844715 0.11675102 0.1264548 0.15856689999999998 0.26965904 -0.018007492 0.013914038 0.20245165 -0.17801548 -0.047374373 -0.090093265 -0.30912979999999995 -0.02871342 0.0010401511999999999
0.17800355 0.15326628 0.34652261 0.5602158 0.43173761 0.43292827 0.31104039 0.46511094 0.80842949 0.75977671 0.55031466 0.48885185 0.72413274 0.75093312 0.63100588 0.71781997 0.6192352 0.47629716 0.62541035 0.64715893 0.53358724 0.77102669 0.80847799 0.45094397 0.57542273 0.70451729 0.60622152 0.73263084 0.61479159 0.78328362 0.9028789 0.58169505 0.64803104 0.72286437 0.54406191 0.27844715 0.11675102 0.1264548 0.15856689999999998 0.26965904 -0.018007492 0.013914038 0.20245165 -0.17801548 -0.047374373 -0.090093265 -0.30912979999999995 -0.02871342 0.0010401511999999999 -0.031450063
0.15326628 0.34652261 0.5602158 0.43173761 0.43292827 0.31104039 0.46511094 0.80842949 0.75977671 0.55031466 0.48885185 0.72413274 0.75093312 0.63100588 0.71781997 0.6192352 0.47629716 0.62541035 0.64715893 0.53358724 0.77102669 0.80847799 0.45094397 0.57542273 0.70451729 0.60622152 0.73263084 0.61479159 0.78328362 0.9028789 0.58169505 0.64803104 0.72286437 0.54406191 0.27844715 0.11675102 0.1264548 0.15856689999999998 0.26965904 -0.018007492 0.013914038 0.20245165 -0.17801548 -0.047374373 -0.090093265 -0.30912979999999995 -0.02871342 0.0010401511999999999 -0.031450063 -0.023117262000000003
0.34652261 0.5602158 0.43173761 0.43292827 0.31104039 0.46511094 0.80842949 0.75977671 0.55031466 0.48885185 0.72413274 0.75093312 0.63100588 0.71781997 0.6192352 0.47629716 0.62541035 0.64715893 0.53358724 0.77102669 0.80847799 0.45094397 0.57542273 0.70451729 0.60622152 0.73263084 0.61479159 0.78328362 0.9028789 0.58169505 0.64803104 0.72286437 0.54406191 0.27844715 0.11675102 0.1264548 0.15856689999999998 0.26965904 -0.018007492 0.013914038 0.20245165 -0.17801548 -0.047374373 -0.090093265 -0.30912979999999995 -0.02871342 0.0010401511999999999 -0.031450063 -0.023117262000000003 -0.0096170709
0.5602158 0.43173761 0.43292827 0.31104039 0.46511094 0.80842949 0.75977671 0.55031466 0.48885185 0.72413274 0.75093312 0.63100588 0.71781997 0.6192352 0.47629716 0.62541035 0.64715893 0.53358724 0.77102669 0.80847799 0.45094397 0.57542273 0.70451729 0.60622152 0.73263084 0.61479159 0.78328362 0.9028789 0.58169505 0.64803104 0.72286437 0.54406191 0.27844715 0.11675102 0.1264548 0.15856689999999998 0.26965904 -0.018007492 0.013914038 0.20245165 -0.17801548 -0.047374373 -0.090093265 -0.30912979999999995 -0.02871342 0.0010401511999999999 -0.031450063 -0.023117262000000003 -0.0096170709 0.041113181
