2.1130508999999997 3.2390537999999998 2.5576422 2.3156721 1.0033186 0.84966324 1.6319268999999998 1.4242787000000001 1.3158524 0.99924424 0.20781148 -0.42103656 -0.46503334 -0.60489143 -0.6477286999999999 -0.81837778 -0.90049714 -0.89675992 -0.94460744 -1.0835873 -1.2033444 -1.2250112 -1.3277376 -1.5290698 -1.604899 -1.6701252 -1.8830348999999997 -1.9134538 -1.9651991999999998 -2.0613577000000003 -2.0139337 -1.9866671999999999 -1.7922721000000001 -1.580074 -1.3290469999999999 -0.89651814 -0.55237603 -0.26007503 0.051493625 0.33432175 0.52700648 0.63982191 0.72894939 0.74235551 0.69689598 0.70678671 0.61881583 0.59308291 0.60875104 0.56287954
3.2390537999999998 2.5576422 2.3156721 1.0033186 0.84966324 1.6319268999999998 1.4242787000000001 1.3158524 0.99924424 0.20781148 -0.42103656 -0.46503334 -0.60489143 -0.6477286999999999 -0.81837778 -0.90049714 -0.89675992 -0.94460744 -1.0835873 -1.2033444 -1.2250112 -1.3277376 -1.5290698 -1.604899 -1.6701252 -1.8830348999999997 -1.9134538 -1.9651991999999998 -2.0613577000000003 -2.0139337 -1.9866671999999999 -1.7922721000000001 -1.580074 -1.3290469999999999 -0.89651814 -0.55237603 -0.26007503 0.051493625 0.33432175 0.52700648 0.63982191 0.72894939 0.74235551 0.69689598 0.70678671 0.61881583 0.59308291 0.60875104 0.56287954 0.60347036
2.5576422 2.3156721 1.0033186 0.84966324 1.6319268999999998 1.4242787000000001 1.3158524 0.99924424 0.20781148 -0.42103656 -0.46503334 -0.60489143 -0.6477286999999999 -0.81837778 -0.90049714 -0.89675992 -0.94460744 -1.0835873 -1.2033444 -1.2250112 -1.3277376 -1.5290698 -1.604899 -1.6701252 -1.8830348999999997 -1.9134538 -1.9651991999999998 -2.0613577000000003 -2.0139337 -1.9866671999999999 -1.7922721000000001 -1.580074 -1.3290469999999999 -0.89651814 -0.55237603 -0.26007503 0.051493625 0.33432175 0.52700648 0.63982191 0.72894939 0.74235551 0.69689598 0.70678671 0.61881583 0.59308291 0.60875104 0.56287954 0.60347036 0.53784661
2.3156721 1.0033186 0.84966324 1.6319268999999998 1.4242787000000001 1.3158524 0.99924424 0.20781148 -0.42103656 -0.46503334 -0.60489143 -0.6477286999999999 -0.81837778 -0.90049714 -0.89675992 -0.94460744 -1.0835873 -1.2033444 -1.2250112 -1.3277376 -1.5290698 -1.604899 -1.6701252 -1.8830348999999997 -1.9134538 -1.9651991999999998 -2.0613577000000003 -2.0139337 -1.9866671999999999 -1.7922721000000001 -1.580074 -1.3290469999999999 -0.89651814 -0.55237603 -0.26007503 0.051493625 0.33432175 0.52700648 0.63982191 0.72894939 0.74235551 0.69689598 0.70678671 0.61881583 0.59308291 0.60875104 0.56287954 0.60347036 0.53784661 0.51812293
1.0033186 0.84966324 1.6319268999999998 1.4242787000000001 1.3158524 0.99924424 0.20781148 -0.42103656 -0.46503334 -0.60489143 -0.6477286999999999 -0.81837778 -0.90049714 -0.89675992 -0.94460744 -1.0835873 -1.2033444 -1.2250112 -1.3277376 -1.5290698 -1.604899 -1.6701252 -1.8830348999999997 -1.9134538 -1.9651991999999998 -2.0613577000000003 -2.0139337 -1.9866671999999999 -1.7922721000000001 -1.580074 -1.3290469999999999 -0.89651814 -0.55237603 -0.26007503 0.051493625 0.33432175 0.52700648 0.63982191 0.72894939 0.74235551 0.69689598 0.70678671 0.61881583 0.59308291 0.60875104 0.56287954 0.60347036 0.53784661 0.51812293 0.59629696
0.84966324 1.6319268999999998 1.4242787000000001 1.3158524 0.99924424 0.20781148 -0.42103656 -0.46503334 -0.60489143 -0.6477286999999999 -0.81837778 -0.90049714 -0.89675992 -0.94460744 -1.0835873 -1.2033444 -1.2250112 -1.3277376 -1.5290698 -1.604899 -1.6701252 -1.8830348999999997 -1.9134538 -1.9651991999999998 -2.0613577000000003 -2.0139337 -1.9866671999999999 -1.7922721000000001 -1.580074 -1.3290469999999999 -0.89651814 -0.55237603 -0.26007503 0.051493625 0.33432175 0.52700648 0.63982191 0.72894939 0.74235551 0.69689598 0.70678671 0.61881583 0.59308291 0.60875104 0.56287954 0.60347036 0.53784661 0.51812293 0.59629696 0.52432868
1.6319268999999998 1.4242787000000001 1.3158524 0.99924424 0.20781148 -0.42103656 -0.46503334 -0.60489143 -0.6477286999999999 -0.81837778 -0.90049714 -0.89675992 -0.94460744 -1.0835873 -1.2033444 -1.2250112 -1.3277376 -1.5290698 -1.604899 -1.6701252 -1.8830348999999997 -1.9134538 -1.9651991999999998 -2.0613577000000003 -2.0139337 -1.9866671999999999 -1.7922721000000001 -1.580074 -1.3290469999999999 -0.89651814 -0.55237603 -0.26007503 0.051493625 0.33432175 0.52700648 0.63982191 0.72894939 0.74235551 0.69689598 0.70678671 0.61881583 0.59308291 0.60875104 0.56287954 0.60347036 0.53784661 0.51812293 0.59629696 0.52432868 0.50674142
1.4242787000000001 1.3158524 0.99924424 0.20781148 -0.42103656 -0.46503334 -0.60489143 -0.6477286999999999 -0.81837778 -0.90049714 -0.89675992 -0.94460744 -1.0835873 -1.2033444 -1.2250112 -1.3277376 -1.5290698 -1.604899 -1.6701252 -1.8830348999999997 -1.9134538 -1.9651991999999998 -2.0613577000000003 -2.0139337 -1.9866671999999999 -1.7922721000000001 -1.580074 -1.3290469999999999 -0.89651814 -0.55237603 -0.26007503 0.051493625 0.33432175 0.52700648 0.63982191 0.72894939 0.74235551 0.69689598 0.70678671 0.61881583 0.59308291 0.60875104 0.56287954 0.60347036 0.53784661 0.51812293 0.59629696 0.52432868 0.50674142 0.50123192
1.3158524 0.99924424 0.20781148 -0.42103656 -0.46503334 -0.60489143 -0.6477286999999999 -0.81837778 -0.90049714 -0.89675992 -0.94460744 -1.0835873 -1.2033444 -1.2250112 -1.3277376 -1.5290698 -1.604899 -1.6701252 -1.8830348999999997 -1.9134538 -1.9651991999999998 -2.0613577000000003 -2.0139337 -1.9866671999999999 -1.7922721000000001 -1.580074 -1.3290469999999999 -0.89651814 -0.55237603 -0.26007503 0.051493625 0.33432175 0.52700648 0.63982191 0.72894939 0.74235551 0.69689598 0.70678671 0.61881583 0.59308291 0.60875104 0.56287954 0.60347036 0.53784661 0.51812293 0.59629696 0.52432868 0.50674142 0.50123192 0.48159799999999997
0.99924424 0.20781148 -0.42103656 -0.46503334 -0.60489143 -0.6477286999999999 -0.81837778 -0.90049714 -0.89675992 -0.94460744 -1.0835873 -1.2033444 -1.2250112 -1.3277376 -1.5290698 -1.604899 -1.6701252 -1.8830348999999997 -1.9134538 -1.9651991999999998 -2.0613577000000003 -2.0139337 -1.9866671999999999 -1.7922721000000001 -1.580074 -1.3290469999999999 -0.89651814 -0.55237603 -0.26007503 0.051493625 0.33432175 0.52700648 0.63982191 0.72894939 0.74235551 0.69689598 0.70678671 0.61881583 0.59308291 0.60875104 0.56287954 0.60347036 0.53784661 0.51812293 0.59629696 0.52432868 0.50674142 0.50123192 0.48159799999999997 0.47713123
0.20781148 -0.42103656 -0.46503334 -0.60489143 -0.6477286999999999 -0.81837778 -0.90049714 -0.89675992 -0.94460744 -1.0835873 -1.2033444 -1.2250112 -1.3277376 -1.5290698 -1.604899 -1.6701252 -1.8830348999999997 -1.9134538 -1.9651991999999998 -2.0613577000000003 -2.0139337 -1.9866671999999999 -1.7922721000000001 -1.580074 -1.3290469999999999 -0.89651814 -0.55237603 -0.26007503 0.051493625 0.33432175 0.52700648 0.63982191 0.72894939 0.74235551 0.69689598 0.70678671 0.61881583 0.59308291 0.60875104 0.56287954 0.60347036 0.53784661 0.51812293 0.59629696 0.52432868 0.50674142 0.50123192 0.48159799999999997 0.47713123 0.36448407
-0.42103656 -0.46503334 -0.60489143 -0.6477286999999999 -0.81837778 -0.90049714 -0.89675992 -0.94460744 -1.0835873 -1.2033444 -1.2250112 -1.3277376 -1.5290698 -1.604899 -1.6701252 -1.8830348999999997 -1.9134538 -1.9651991999999998 -2.0613577000000003 -2.0139337 -1.9866671999999999 -1.7922721000000001 -1.580074 -1.3290469999999999 -0.89651814 -0.55237603 -0.26007503 0.051493625 0.33432175 0.52700648 0.63982191 0.72894939 0.74235551 0.69689598 0.70678671 0.61881583 0.59308291 0.60875104 0.56287954 0.60347036 0.53784661 0.51812293 0.59629696 0.52432868 0.50674142 0.50123192 0.48159799999999997 0.47713123 0.36448407 0.42906321
-0.46503334 -0.60489143 -0.6477286999999999 -0.81837778 -0.90049714 -0.89675992 -0.94460744 -1.0835873 -1.2033444 -1.2250112 -1.3277376 -1.5290698 -1.604899 -1.6701252 -1.8830348999999997 -1.9134538 -1.9651991999999998 -2.0613577000000003 -2.0139337 -1.9866671999999999 -1.7922721000000001 -1.580074 -1.3290469999999999 -0.89651814 -0.55237603 -0.26007503 0.051493625 0.33432175 0.52700648 0.63982191 0.72894939 0.74235551 0.69689598 0.70678671 0.61881583 0.59308291 0.60875104 0.56287954 0.60347036 0.53784661 0.51812293 0.59629696 0.52432868 0.50674142 0.50123192 0.48159799999999997 0.47713123 0.36448407 0.42906321 0.41800232
-0.60489143 -0.6477286999999999 -0.81837778 -0.90049714 -0.89675992 -0.94460744 -1.0835873 -1.2033444 -1.2250112 -1.3277376 -1.5290698 -1.604899 -1.6701252 -1.8830348999999997 -1.9134538 -1.9651991999999998 -2.0613577000000003 -2.0139337 -1.9866671999999999 -1.7922721000000001 -1.580074 -1.3290469999999999 -0.89651814 -0.55237603 -0.26007503 0.051493625 0.33432175 0.52700648 0.63982191 0.72894939 0.74235551 0.69689598 0.70678671 0.61881583 0.59308291 0.60875104 0.56287954 0.60347036 0.53784661 0.51812293 0.59629696 0.52432868 0.50674142 0.50123192 0.48159799999999997 0.47713123 0.36448407 0.42906321 0.41800232 0.33307746
-0.6477286999999999 -0.81837778 -0.90049714 -0.89675992 -0.94460744 -1.0835873 -1.2033444 -1.2250112 -1.3277376 -1.5290698 -1.604899 -1.6701252 -1.8830348999999997 -1.9134538 -1.9651991999999998 -2.0613577000000003 -2.0139337 -1.9866671999999999 -1.7922721000000001 -1.580074 -1.3290469999999999 -0.89651814 -0.55237603 -0.26007503 0.051493625 0.33432175 0.52700648 0.63982191 0.72894939 0.74235551 0.69689598 0.70678671 0.61881583 0.59308291 0.60875104 0.56287954 0.60347036 0.53784661 0.51812293 0.59629696 0.52432868 0.50674142 0.50123192 0.48159799999999997 0.47713123 0.36448407 0.42906321 0.41800232 0.33307746 0.28346888
-0.81837778 -0.90049714 -0.89675992 -0.94460744 -1.0835873 -1.2033444 -1.2250112 -1.3277376 -1.5290698 -1.604899 -1.6701252 -1.8830348999999997 -1.9134538 -1.9651991999999998 -2.0613577000000003 -2.0139337 -1.9866671999999999 -1.7922721000000001 -1.580074 -1.3290469999999999 -0.89651814 -0.55237603 -0.26007503 0.051493625 0.33432175 0.52700648 0.63982191 0.72894939 0.74235551 0.69689598 0.70678671 0.61881583 0.59308291 0.60875104 0.56287954 0.60347036 0.53784661 0.51812293 0.59629696 0.52432868 0.50674142 0.50123192 0.48159799999999997 0.47713123 0.36448407 0.42906321 0.41800232 0.33307746 0.28346888 0.26304588
-0.90049714 -0.89675992 -0.94460744 -1.0835873 -1.2033444 -1.2250112 -1.3277376 -1.5290698 -1.604899 -1.6701252 -1.8830348999999997 -1.9134538 -1.9651991999999998 -2.0613577000000003 -2.0139337 -1.9866671999999999 -1.7922721000000001 -1.580074 -1.3290469999999999 -0.89651814 -0.55237603 -0.26007503 0.051493625 0.33432175 0.52700648 0.63982191 0.72894939 0.74235551 0.69689598 0.70678671 0.61881583 0.59308291 0.60875104 0.56287954 0.60347036 0.53784661 0.51812293 0.59629696 0.52432868 0.50674142 0.50123192 0.48159799999999997 0.47713123 0.36448407 0.42906321 0.41800232 0.33307746 0.28346888 0.26304588 0.24960836
-0.89675992 -0.94460744 -1.0835873 -1.2033444 -1.2250112 -1.3277376 -1.5290698 -1.604899 -1.6701252 -1.8830348999999997 -1.9134538 -1.9651991999999998 -2.0613577000000003 -2.0139337 -1.9866671999999999 -1.7922721000000001 -1.580074 -1.3290469999999999 -0.89651814 -0.55237603 -0.26007503 0.051493625 0.33432175 0.52700648 0.63982191 0.72894939 0.74235551 0.69689598 0.70678671 0.61881583 0.59308291 0.60875104 0.56287954 0.60347036 0.53784661 0.51812293 0.59629696 0.52432868 0.50674142 0.50123192 0.48159799999999997 0.47713123 0.36448407 0.42906321 0.41800232 0.33307746 0.28346888 0.26304588 0.24960836 0.16096889
-0.94460744 -1.0835873 -1.2033444 -1.2250112 -1.3277376 -1.5290698 -1.604899 -1.6701252 -1.8830348999999997 -1.9134538 -1.9651991999999998 -2.0613577000000003 -2.0139337 -1.9866671999999999 -1.7922721000000001 -1.580074 -1.3290469999999999 -0.89651814 -0.55237603 -0.26007503 0.051493625 0.33432175 0.52700648 0.63982191 0.72894939 0.74235551 0.69689598 0.70678671 0.61881583 0.59308291 0.60875104 0.56287954 0.60347036 0.53784661 0.51812293 0.59629696 0.52432868 0.50674142 0.50123192 0.48159799999999997 0.47713123 0.36448407 0.42906321 0.41800232 0.33307746 0.28346888 0.26304588 0.24960836 0.16096889 0.19426417
-1.0835873 -1.2033444 -1.2250112 -1.3277376 -1.5290698 -1.604899 -1.6701252 -1.8830348999999997 -1.9134538 -1.9651991999999998 -2.0613577000000003 -2.0139337 -1.9866671999999999 -1.7922721000000001 -1.580074 -1.3290469999999999 -0.89651814 -0.55237603 -0.26007503 0.051493625 0.33432175 0.52700648 0.63982191 0.72894939 0.74235551 0.69689598 0.70678671 0.61881583 0.59308291 0.60875104 0.56287954 0.60347036 0.53784661 0.51812293 0.59629696 0.52432868 0.50674142 0.50123192 0.48159799999999997 0.47713123 0.36448407 0.42906321 0.41800232 0.33307746 0.28346888 0.26304588 0.24960836 0.16096889 0.19426417 0.16329789
-1.2033444 -1.2250112 -1.3277376 -1.5290698 -1.604899 -1.6701252 -1.8830348999999997 -1.9134538 -1.9651991999999998 -2.0613577000000003 -2.0139337 -1.9866671999999999 -1.7922721000000001 -1.580074 -1.3290469999999999 -0.89651814 -0.55237603 -0.26007503 0.051493625 0.33432175 0.52700648 0.63982191 0.72894939 0.74235551 0.69689598 0.70678671 0.61881583 0.59308291 0.60875104 0.56287954 0.60347036 0.53784661 0.51812293 0.59629696 0.52432868 0.50674142 0.50123192 0.48159799999999997 0.47713123 0.36448407 0.42906321 0.41800232 0.33307746 0.28346888 0.26304588 0.24960836 0.16096889 0.19426417 0.16329789 0.17884684
-1.2250112 -1.3277376 -1.5290698 -1.604899 -1.6701252 -1.8830348999999997 -1.9134538 -1.9651991999999998 -2.0613577000000003 -2.0139337 -1.9866671999999999 -1.7922721000000001 -1.580074 -1.3290469999999999 -0.89651814 -0.55237603 -0.26007503 0.051493625 0.33432175 0.52700648 0.63982191 0.72894939 0.74235551 0.69689598 0.70678671 0.61881583 0.59308291 0.60875104 0.56287954 0.60347036 0.53784661 0.51812293 0.59629696 0.52432868 0.50674142 0.50123192 0.48159799999999997 0.47713123 0.36448407 0.42906321 0.41800232 0.33307746 0.28346888 0.26304588 0.24960836 0.16096889 0.19426417 0.16329789 0.17884684 0.076809831
-1.3277376 -1.5290698 -1.604899 -1.6701252 -1.8830348999999997 -1.9134538 -1.9651991999999998 -2.0613577000000003 -2.0139337 -1.9866671999999999 -1.7922721000000001 -1.580074 -1.3290469999999999 -0.89651814 -0.55237603 -0.26007503 0.051493625 0.33432175 0.52700648 0.63982191 0.72894939 0.74235551 0.69689598 0.70678671 0.61881583 0.59308291 0.60875104 0.56287954 0.60347036 0.53784661 0.51812293 0.59629696 0.52432868 0.50674142 0.50123192 0.48159799999999997 0.47713123 0.36448407 0.42906321 0.41800232 0.33307746 0.28346888 0.26304588 0.24960836 0.16096889 0.19426417 0.16329789 0.17884684 0.076809831 0.062740042
-1.5290698 -1.604899 -1.6701252 -1.8830348999999997 -1.9134538 -1.9651991999999998 -2.0613577000000003 -2.0139337 -1.9866671999999999 -1.7922721000000001 -1.580074 -1.3290469999999999 -0.89651814 -0.55237603 -0.26007503 0.051493625 0.33432175 0.52700648 0.63982191 0.72894939 0.74235551 0.69689598 0.70678671 0.61881583 0.59308291 0.60875104 0.56287954 0.60347036 0.53784661 0.51812293 0.59629696 0.52432868 0.50674142 0.50123192 0.48159799999999997 0.47713123 0.36448407 0.42906321 0.41800232 0.33307746 0.28346888 0.26304588 0.24960836 0.16096889 0.19426417 0.16329789 0.17884684 0.076809831 0.062740042 0.281737
-1.604899 -1.6701252 -1.8830348999999997 -1.9134538 -1.9651991999999998 -2.0613577000000003 -2.0139337 -1.9866671999999999 -1.7922721000000001 -1.580074 -1.3290469999999999 -0.89651814 -0.55237603 -0.26007503 0.051493625 0.33432175 0.52700648 0.63982191 0.72894939 0.74235551 0.69689598 0.70678671 0.61881583 0.59308291 0.60875104 0.56287954 0.60347036 0.53784661 0.51812293 0.59629696 0.52432868 0.50674142 0.50123192 0.48159799999999997 0.47713123 0.36448407 0.42906321 0.41800232 0.33307746 0.28346888 0.26304588 0.24960836 0.16096889 0.19426417 0.16329789 0.17884684 0.076809831 0.062740042 0.281737 0.44048912
-1.6701252 -1.8830348999999997 -1.9134538 -1.9651991999999998 -2.0613577000000003 -2.0139337 -1.9866671999999999 -1.7922721000000001 -1.580074 -1.3290469999999999 -0.89651814 -0.55237603 -0.26007503 0.051493625 0.33432175 0.52700648 0.63982191 0.72894939 0.74235551 0.69689598 0.70678671 0.61881583 0.59308291 0.60875104 0.56287954 0.60347036 0.53784661 0.51812293 0.59629696 0.52432868 0.50674142 0.50123192 0.48159799999999997 0.47713123 0.36448407 0.42906321 0.41800232 0.33307746 0.28346888 0.26304588 0.24960836 0.16096889 0.19426417 0.16329789 0.17884684 0.076809831 0.062740042 0.281737 0.44048912 0.47879892
-1.8830348999999997 -1.9134538 -1.9651991999999998 -2.0613577000000003 -2.0139337 -1.9866671999999999 -1.7922721000000001 -1.580074 -1.3290469999999999 -0.89651814 -0.55237603 -0.26007503 0.051493625 0.33432175 0.52700648 0.63982191 0.72894939 0.74235551 0.69689598 0.70678671 0.61881583 0.59308291 0.60875104 0.56287954 0.60347036 0.53784661 0.51812293 0.59629696 0.52432868 0.50674142 0.50123192 0.48159799999999997 0.47713123 0.36448407 0.42906321 0.41800232 0.33307746 0.28346888 0.26304588 0.24960836 0.16096889 0.19426417 0.16329789 0.17884684 0.076809831 0.062740042 0.281737 0.44048912 0.47879892 0.50719613
-1.9134538 -1.9651991999999998 -2.0613577000000003 -2.0139337 -1.9866671999999999 -1.7922721000000001 -1.580074 -1.3290469999999999 -0.89651814 -0.55237603 -0.26007503 0.051493625 0.33432175 0.52700648 0.63982191 0.72894939 0.74235551 0.69689598 0.70678671 0.61881583 0.59308291 0.60875104 0.56287954 0.60347036 0.53784661 0.51812293 0.59629696 0.52432868 0.50674142 0.50123192 0.48159799999999997 0.47713123 0.36448407 0.42906321 0.41800232 0.33307746 0.28346888 0.26304588 0.24960836 0.16096889 0.19426417 0.16329789 0.17884684 0.076809831 0.062740042 0.281737 0.44048912 0.47879892 0.50719613 0.35508406
-1.9651991999999998 -2.0613577000000003 -2.0139337 -1.9866671999999999 -1.7922721000000001 -1.580074 -1.3290469999999999 -0.89651814 -0.55237603 -0.26007503 0.051493625 0.33432175 0.52700648 0.63982191 0.72894939 0.74235551 0.69689598 0.70678671 0.61881583 0.59308291 0.60875104 0.56287954 0.60347036 0.53784661 0.51812293 0.59629696 0.52432868 0.50674142 0.50123192 0.48159799999999997 0.47713123 0.36448407 0.42906321 0.41800232 0.33307746 0.28346888 0.26304588 0.24960836 0.16096889 0.19426417 0.16329789 0.17884684 0.076809831 0.062740042 0.281737 0.44048912 0.47879892 0.50719613 0.35508406 0.16924946
-2.0613577000000003 -2.0139337 -1.9866671999999999 -1.7922721000000001 -1.580074 -1.3290469999999999 -0.89651814 -0.55237603 -0.26007503 0.051493625 0.33432175 0.52700648 0.63982191 0.72894939 0.74235551 0.69689598 0.70678671 0.61881583 0.59308291 0.60875104 0.56287954 0.60347036 0.53784661 0.51812293 0.59629696 0.52432868 0.50674142 0.50123192 0.48159799999999997 0.47713123 0.36448407 0.42906321 0.41800232 0.33307746 0.28346888 0.26304588 0.24960836 0.16096889 0.19426417 0.16329789 0.17884684 0.076809831 0.062740042 0.281737 0.44048912 0.47879892 0.50719613 0.35508406 0.16924946 0.11046712
-2.0139337 -1.9866671999999999 -1.7922721000000001 -1.580074 -1.3290469999999999 -0.89651814 -0.55237603 -0.26007503 0.051493625 0.33432175 0.52700648 0.63982191 0.72894939 0.74235551 0.69689598 0.70678671 0.61881583 0.59308291 0.60875104 0.56287954 0.60347036 0.53784661 0.51812293 0.59629696 0.52432868 0.50674142 0.50123192 0.48159799999999997 0.47713123 0.36448407 0.42906321 0.41800232 0.33307746 0.28346888 0.26304588 0.24960836 0.16096889 0.19426417 0.16329789 0.17884684 0.076809831 0.062740042 0.281737 0.44048912 0.47879892 0.50719613 0.35508406 0.16924946 0.11046712 0.021528653999999998
-1.9866671999999999 -1.7922721000000001 -1.580074 -1.3290469999999999 -0.89651814 -0.55237603 -0.26007503 0.051493625 0.33432175 0.52700648 0.63982191 0.72894939 0.74235551 0.69689598 0.70678671 0.61881583 0.59308291 0.60875104 0.56287954 0.60347036 0.53784661 0.51812293 0.59629696 0.52432868 0.50674142 0.50123192 0.48159799999999997 0.47713123 0.36448407 0.42906321 0.41800232 0.33307746 0.28346888 0.26304588 0.24960836 0.16096889 0.19426417 0.16329789 0.17884684 0.076809831 0.062740042 0.281737 0.44048912 0.47879892 0.50719613 0.35508406 0.16924946 0.11046712 0.021528653999999998 -0.085791634
-1.7922721000000001 -1.580074 -1.3290469999999999 -0.89651814 -0.55237603 -0.26007503 0.051493625 0.33432175 0.52700648 0.63982191 0.72894939 0.74235551 0.69689598 0.70678671 0.61881583 0.59308291 0.60875104 0.56287954 0.60347036 0.53784661 0.51812293 0.59629696 0.52432868 0.50674142 0.50123192 0.48159799999999997 0.47713123 0.36448407 0.42906321 0.41800232 0.33307746 0.28346888 0.26304588 0.24960836 0.16096889 0.19426417 0.16329789 0.17884684 0.076809831 0.062740042 0.281737 0.44048912 0.47879892 0.50719613 0.35508406 0.16924946 0.11046712 0.021528653999999998 -0.085791634 -0.13028596
-1.580074 -1.3290469999999999 -0.89651814 -0.55237603 -0.26007503 0.051493625 0.33432175 0.52700648 0.63982191 0.72894939 0.74235551 0.69689598 0.70678671 0.61881583 0.59308291 0.60875104 0.56287954 0.60347036 0.53784661 0.51812293 0.59629696 0.52432868 0.50674142 0.50123192 0.48159799999999997 0.47713123 0.36448407 0.42906321 0.41800232 0.33307746 0.28346888 0.26304588 0.24960836 0.16096889 0.19426417 0.16329789 0.17884684 0.076809831 0.062740042 0.281737 0.44048912 0.47879892 0.50719613 0.35508406 0.16924946 0.11046712 0.021528653999999998 -0.085791634 -0.13028596 -0.11626912
-1.3290469999999999 -0.89651814 -0.55237603 -0.26007503 0.051493625 0.33432175 0.52700648 0.63982191 0.72894939 0.74235551 0.69689598 0.70678671 0.61881583 0.59308291 0.60875104 0.56287954 0.60347036 0.53784661 0.51812293 0.59629696 0.52432868 0.50674142 0.50123192 0.48159799999999997 0.47713123 0.36448407 0.42906321 0.41800232 0.33307746 0.28346888 0.26304588 0.24960836 0.16096889 0.19426417 0.16329789 0.17884684 0.076809831 0.062740042 0.281737 0.44048912 0.47879892 0.50719613 0.35508406 0.16924946 0.11046712 0.021528653999999998 -0.085791634 -0.13028596 -0.11626912 -0.18007087
-0.89651814 -0.55237603 -0.26007503 0.051493625 0.33432175 0.52700648 0.63982191 0.72894939 0.74235551 0.69689598 0.70678671 0.61881583 0.59308291 0.60875104 0.56287954 0.60347036 0.53784661 0.51812293 0.59629696 0.52432868 0.50674142 0.50123192 0.48159799999999997 0.47713123 0.36448407 0.42906321 0.41800232 0.33307746 0.28346888 0.26304588 0.24960836 0.16096889 0.19426417 0.16329789 0.17884684 0.076809831 0.062740042 0.281737 0.44048912 0.47879892 0.50719613 0.35508406 0.16924946 0.11046712 0.021528653999999998 -0.085791634 -0.13028596 -0.11626912 -0.18007087 -0.16631974
-0.55237603 -0.26007503 0.051493625 0.33432175 0.52700648 0.63982191 0.72894939 0.74235551 0.69689598 0.70678671 0.61881583 0.59308291 0.60875104 0.56287954 0.60347036 0.53784661 0.51812293 0.59629696 0.52432868 0.50674142 0.50123192 0.48159799999999997 0.47713123 0.36448407 0.42906321 0.41800232 0.33307746 0.28346888 0.26304588 0.24960836 0.16096889 0.19426417 0.16329789 0.17884684 0.076809831 0.062740042 0.281737 0.44048912 0.47879892 0.50719613 0.35508406 0.16924946 0.11046712 0.021528653999999998 -0.085791634 -0.13028596 -0.11626912 -0.18007087 -0.16631974 -0.14237232
-0.26007503 0.051493625 0.33432175 0.52700648 0.63982191 0.72894939 0.74235551 0.69689598 0.70678671 0.61881583 0.59308291 0.60875104 0.56287954 0.60347036 0.53784661 0.51812293 0.59629696 0.52432868 0.50674142 0.50123192 0.48159799999999997 0.47713123 0.36448407 0.42906321 0.41800232 0.33307746 0.28346888 0.26304588 0.24960836 0.16096889 0.19426417 0.16329789 0.17884684 0.076809831 0.062740042 0.281737 0.44048912 0.47879892 0.50719613 0.35508406 0.16924946 0.11046712 0.021528653999999998 -0.085791634 -0.13028596 -0.11626912 -0.18007087 -0.16631974 -0.14237232 -0.11230398
0.051493625 0.33432175 0.52700648 0.63982191 0.72894939 0.74235551 0.69689598 0.70678671 0.61881583 0.59308291 0.60875104 0.56287954 0.60347036 0.53784661 0.51812293 0.59629696 0.52432868 0.50674142 0.50123192 0.48159799999999997 0.47713123 0.36448407 0.42906321 0.41800232 0.33307746 0.28346888 0.26304588 0.24960836 0.16096889 0.19426417 0.16329789 0.17884684 0.076809831 0.062740042 0.281737 0.44048912 0.47879892 0.50719613 0.35508406 0.16924946 0.11046712 0.021528653999999998 -0.085791634 -0.13028596 -0.11626912 -0.18007087 -0.16631974 -0.14237232 -0.11230398 -0.083357236
0.33432175 0.52700648 0.63982191 0.72894939 0.74235551 0.69689598 0.70678671 0.61881583 0.59308291 0.60875104 0.56287954 0.60347036 0.53784661 0.51812293 0.59629696 0.52432868 0.50674142 0.50123192 0.48159799999999997 0.47713123 0.36448407 0.42906321 0.41800232 0.33307746 0.28346888 0.26304588 0.24960836 0.16096889 0.19426417 0.16329789 0.17884684 0.076809831 0.062740042 0.281737 0.44048912 0.47879892 0.50719613 0.35508406 0.16924946 0.11046712 0.021528653999999998 -0.085791634 -0.13028596 -0.11626912 -0.18007087 -0.16631974 -0.14237232 -0.11230398 -0.083357236 -0.15890054
0.52700648 0.63982191 0.72894939 0.74235551 0.69689598 0.70678671 0.61881583 0.59308291 0.60875104 0.56287954 0.60347036 0.53784661 0.51812293 0.59629696 0.52432868 0.50674142 0.50123192 0.48159799999999997 0.47713123 0.36448407 0.42906321 0.41800232 0.33307746 0.28346888 0.26304588 0.24960836 0.16096889 0.19426417 0.16329789 0.17884684 0.076809831 0.062740042 0.281737 0.44048912 0.47879892 0.50719613 0.35508406 0.16924946 0.11046712 0.021528653999999998 -0.085791634 -0.13028596 -0.11626912 -0.18007087 -0.16631974 -0.14237232 -0.11230398 -0.083357236 -0.15890054 -0.062688992
0.63982191 0.72894939 0.74235551 0.69689598 0.70678671 0.61881583 0.59308291 0.60875104 0.56287954 0.60347036 0.53784661 0.51812293 0.59629696 0.52432868 0.50674142 0.50123192 0.48159799999999997 0.47713123 0.36448407 0.42906321 0.41800232 0.33307746 0.28346888 0.26304588 0.24960836 0.16096889 0.19426417 0.16329789 0.17884684 0.076809831 0.062740042 0.281737 0.44048912 0.47879892 0.50719613 0.35508406 0.16924946 0.11046712 0.021528653999999998 -0.085791634 -0.13028596 -0.11626912 -0.18007087 -0.16631974 -0.14237232 -0.11230398 -0.083357236 -0.15890054 -0.062688992 -0.057953761
0.72894939 0.74235551 0.69689598 0.70678671 0.61881583 0.59308291 0.60875104 0.56287954 0.60347036 0.53784661 0.51812293 0.59629696 0.52432868 0.50674142 0.50123192 0.48159799999999997 0.47713123 0.36448407 0.42906321 0.41800232 0.33307746 0.28346888 0.26304588 0.24960836 0.16096889 0.19426417 0.16329789 0.17884684 0.076809831 0.062740042 0.281737 0.44048912 0.47879892 0.50719613 0.35508406 0.16924946 0.11046712 0.021528653999999998 -0.085791634 -0.13028596 -0.11626912 -0.18007087 -0.16631974 -0.14237232 -0.11230398 -0.083357236 -0.15890054 -0.062688992 -0.057953761 -0.15371915
0.74235551 0.69689598 0.70678671 0.61881583 0.59308291 0.60875104 0.56287954 0.60347036 0.53784661 0.51812293 0.59629696 0.52432868 0.50674142 0.50123192 0.48159799999999997 0.47713123 0.36448407 0.42906321 0.41800232 0.33307746 0.28346888 0.26304588 0.24960836 0.16096889 0.19426417 0.16329789 0.17884684 0.076809831 0.062740042 0.281737 0.44048912 0.47879892 0.50719613 0.35508406 0.16924946 0.11046712 0.021528653999999998 -0.085791634 -0.13028596 -0.11626912 -0.18007087 -0.16631974 -0.14237232 -0.11230398 -0.083357236 -0.15890054 -0.062688992 -0.057953761 -0.15371915 -0.10223231
0.69689598 0.70678671 0.61881583 0.59308291 0.60875104 0.56287954 0.60347036 0.53784661 0.51812293 0.59629696 0.52432868 0.50674142 0.50123192 0.48159799999999997 0.47713123 0.36448407 0.42906321 0.41800232 0.33307746 0.28346888 0.26304588 0.24960836 0.16096889 0.19426417 0.16329789 0.17884684 0.076809831 0.062740042 0.281737 0.44048912 0.47879892 0.50719613 0.35508406 0.16924946 0.11046712 0.021528653999999998 -0.085791634 -0.13028596 -0.11626912 -0.18007087 -0.16631974 -0.14237232 -0.11230398 -0.083357236 -0.15890054 -0.062688992 -0.057953761 -0.15371915 -0.10223231 -0.11091866
0.70678671 0.61881583 0.59308291 0.60875104 0.56287954 0.60347036 0.53784661 0.51812293 0.59629696 0.52432868 0.50674142 0.50123192 0.48159799999999997 0.47713123 0.36448407 0.42906321 0.41800232 0.33307746 0.28346888 0.26304588 0.24960836 0.16096889 0.19426417 0.16329789 0.17884684 0.076809831 0.062740042 0.281737 0.44048912 0.47879892 0.50719613 0.35508406 0.16924946 0.11046712 0.021528653999999998 -0.085791634 -0.13028596 -0.11626912 -0.18007087 -0.16631974 -0.14237232 -0.11230398 -0.083357236 -0.15890054 -0.062688992 -0.057953761 -0.15371915 -0.10223231 -0.11091866 0.16933574
0.61881583 0.59308291 0.60875104 0.56287954 0.60347036 0.53784661 0.51812293 0.59629696 0.52432868 0.50674142 0.50123192 0.48159799999999997 0.47713123 0.36448407 0.42906321 0.41800232 0.33307746 0.28346888 0.26304588 0.24960836 0.16096889 0.19426417 0.16329789 0.17884684 0.076809831 0.062740042 0.281737 0.44048912 0.47879892 0.50719613 0.35508406 0.16924946 0.11046712 0.021528653999999998 -0.085791634 -0.13028596 -0.11626912 -0.18007087 -0.16631974 -0.14237232 -0.11230398 -0.083357236 -0.15890054 -0.062688992 -0.057953761 -0.15371915 -0.10223231 -0.11091866 0.16933574 0.31289248
