-0.19441323 -1.1007149 -1.3215892 -0.81488251 -0.34071735 -0.38421122 -0.62349815 -0.64220725 -0.55256542 -0.58374892 -0.67414434 -0.70857317 -0.73420062 -0.7671118 -0.74069201 -0.69700841 -0.73888966 -0.84594789 -0.90054696 -0.88965082 -0.88327915 -0.92932783 -1.0130808 -1.1151389999999999 -1.2142127 -1.2802051 -1.2905437 -1.29888 -1.4081455 -1.5917251000000001 -1.6842284 -1.6191126 -1.557851 -1.6148191 -1.6866895 -1.6487589 -1.5526325 -1.4598861 -1.318757 -1.1241276000000002 -0.9834759 -0.91710525 -0.76622029 -0.43579614 -0.062335482000000005 0.14745944 0.20885403 0.29907317 0.48150119999999996 0.61783845
-1.1007149 -1.3215892 -0.81488251 -0.34071735 -0.38421122 -0.62349815 -0.64220725 -0.55256542 -0.58374892 -0.67414434 -0.70857317 -0.73420062 -0.7671118 -0.74069201 -0.69700841 -0.73888966 -0.84594789 -0.90054696 -0.88965082 -0.88327915 -0.92932783 -1.0130808 -1.1151389999999999 -1.2142127 -1.2802051 -1.2905437 -1.29888 -1.4081455 -1.5917251000000001 -1.6842284 -1.6191126 -1.557851 -1.6148191 -1.6866895 -1.6487589 -1.5526325 -1.4598861 -1.318757 -1.1241276000000002 -0.9834759 -0.91710525 -0.76622029 -0.43579614 -0.062335482000000005 0.14745944 0.20885403 0.29907317 0.48150119999999996 0.61783845 0.6520106999999999
-1.3215892 -0.81488251 -0.34071735 -0.38421122 -0.62349815 -0.64220725 -0.55256542 -0.58374892 -0.67414434 -0.70857317 -0.73420062 -0.7671118 -0.74069201 -0.69700841 -0.73888966 -0.84594789 -0.90054696 -0.88965082 -0.88327915 -0.92932783 -1.0130808 -1.1151389999999999 -1.2142127 -1.2802051 -1.2905437 -1.29888 -1.4081455 -1.5917251000000001 -1.6842284 -1.6191126 -1.557851 -1.6148191 -1.6866895 -1.6487589 -1.5526325 -1.4598861 -1.318757 -1.1241276000000002 -0.9834759 -0.91710525 -0.76622029 -0.43579614 -0.062335482000000005 0.14745944 0.20885403 0.29907317 0.48150119999999996 0.61783845 0.6520106999999999 0.70056931
-0.81488251 -0.34071735 -0.38421122 -0.62349815 -0.64220725 -0.55256542 -0.58374892 -0.67414434 -0.70857317 -0.73420062 -0.7671118 -0.74069201 -0.69700841 -0.73888966 -0.84594789 -0.90054696 -0.88965082 -0.88327915 -0.92932783 -1.0130808 -1.1151389999999999 -1.2142127 -1.2802051 -1.2905437 -1.29888 -1.4081455 -1.5917251000000001 -1.6842284 -1.6191126 -1.557851 -1.6148191 -1.6866895 -1.6487589 -1.5526325 -1.4598861 -1.318757 -1.1241276000000002 -0.9834759 -0.91710525 -0.76622029 -0.43579614 -0.062335482000000005 0.14745944 0.20885403 0.29907317 0.48150119999999996 0.61783845 0.6520106999999999 0.70056931 0.82486954
-0.34071735 -0.38421122 -0.62349815 -0.64220725 -0.55256542 -0.58374892 -0.67414434 -0.70857317 -0.73420062 -0.7671118 -0.74069201 -0.69700841 -0.73888966 -0.84594789 -0.90054696 -0.88965082 -0.88327915 -0.92932783 -1.0130808 -1.1151389999999999 -1.2142127 -1.2802051 -1.2905437 -1.29888 -1.4081455 -1.5917251000000001 -1.6842284 -1.6191126 -1.557851 -1.6148191 -1.6866895 -1.6487589 -1.5526325 -1.4598861 -1.318757 -1.1241276000000002 -0.9834759 -0.91710525 -0.76622029 -0.43579614 -0.062335482000000005 0.14745944 0.20885403 0.29907317 0.48150119999999996 0.61783845 0.6520106999999999 0.70056931 0.82486954 0.92153559
-0.38421122 -0.62349815 -0.64220725 -0.55256542 -0.58374892 -0.67414434 -0.70857317 -0.73420062 -0.7671118 -0.74069201 -0.69700841 -0.73888966 -0.84594789 -0.90054696 -0.88965082 -0.88327915 -0.92932783 -1.0130808 -1.1151389999999999 -1.2142127 -1.2802051 -1.2905437 -1.29888 -1.4081455 -1.5917251000000001 -1.6842284 -1.6191126 -1.557851 -1.6148191 -1.6866895 -1.6487589 -1.5526325 -1.4598861 -1.318757 -1.1241276000000002 -0.9834759 -0.91710525 -0.76622029 -0.43579614 -0.062335482000000005 0.14745944 0.20885403 0.29907317 0.48150119999999996 0.61783845 0.6520106999999999 0.70056931 0.82486954 0.92153559 0.97288062
-0.62349815 -0.64220725 -0.55256542 -0.58374892 -0.67414434 -0.70857317 -0.73420062 -0.7671118 -0.74069201 -0.69700841 -0.73888966 -0.84594789 -0.90054696 -0.88965082 -0.88327915 -0.92932783 -1.0130808 -1.1151389999999999 -1.2142127 -1.2802051 -1.2905437 -1.29888 -1.4081455 -1.5917251000000001 -1.6842284 -1.6191126 -1.557851 -1.6148191 -1.6866895 -1.6487589 -1.5526325 -1.4598861 -1.318757 -1.1241276000000002 -0.9834759 -0.91710525 -0.76622029 -0.43579614 -0.062335482000000005 0.14745944 0.20885403 0.29907317 0.48150119999999996 0.61783845 0.6520106999999999 0.70056931 0.82486954 0.92153559 0.97288062 1.0792456
-0.64220725 -0.55256542 -0.58374892 -0.67414434 -0.70857317 -0.73420062 -0.7671118 -0.74069201 -0.69700841 -0.73888966 -0.84594789 -0.90054696 -0.88965082 -0.88327915 -0.92932783 -1.0130808 -1.1151389999999999 -1.2142127 -1.2802051 -1.2905437 -1.29888 -1.4081455 -1.5917251000000001 -1.6842284 -1.6191126 -1.557851 -1.6148191 -1.6866895 -1.6487589 -1.5526325 -1.4598861 -1.318757 -1.1241276000000002 -0.9834759 -0.91710525 -0.76622029 -0.43579614 -0.062335482000000005 0.14745944 0.20885403 0.29907317 0.48150119999999996 0.61783845 0.6520106999999999 0.70056931 0.82486954 0.92153559 0.97288062 1.0792456 1.1797202
-0.55256542 -0.58374892 -0.67414434 -0.70857317 -0.73420062 -0.7671118 -0.74069201 -0.69700841 -0.73888966 -0.84594789 -0.90054696 -0.88965082 -0.88327915 -0.92932783 -1.0130808 -1.1151389999999999 -1.2142127 -1.2802051 -1.2905437 -1.29888 -1.4081455 -1.5917251000000001 -1.6842284 -1.6191126 -1.557851 -1.6148191 -1.6866895 -1.6487589 -1.5526325 -1.4598861 -1.318757 -1.1241276000000002 -0.9834759 -0.91710525 -0.76622029 -0.43579614 -0.062335482000000005 0.14745944 0.20885403 0.29907317 0.48150119999999996 0.61783845 0.6520106999999999 0.70056931 0.82486954 0.92153559 0.97288062 1.0792456 1.1797202 1.1043549
-0.58374892 -0.67414434 -0.70857317 -0.73420062 -0.7671118 -0.74069201 -0.69700841 -0.73888966 -0.84594789 -0.90054696 -0.88965082 -0.88327915 -0.92932783 -1.0130808 -1.1151389999999999 -1.2142127 -1.2802051 -1.2905437 -1.29888 -1.4081455 -1.5917251000000001 -1.6842284 -1.6191126 -1.557851 -1.6148191 -1.6866895 -1.6487589 -1.5526325 -1.4598861 -1.318757 -1.1241276000000002 -0.9834759 -0.91710525 -0.76622029 -0.43579614 -0.062335482000000005 0.14745944 0.20885403 0.29907317 0.48150119999999996 0.61783845 0.6520106999999999 0.70056931 0.82486954 0.92153559 0.97288062 1.0792456 1.1797202 1.1043549 0.92291354
-0.67414434 -0.70857317 -0.73420062 -0.7671118 -0.74069201 -0.69700841 -0.73888966 -0.84594789 -0.90054696 -0.88965082 -0.88327915 -0.92932783 -1.0130808 -1.1151389999999999 -1.2142127 -1.2802051 -1.2905437 -1.29888 -1.4081455 -1.5917251000000001 -1.6842284 -1.6191126 -1.557851 -1.6148191 -1.6866895 -1.6487589 -1.5526325 -1.4598861 -1.318757 -1.1241276000000002 -0.9834759 -0.91710525 -0.76622029 -0.43579614 -0.062335482000000005 0.14745944 0.20885403 0.29907317 0.48150119999999996 0.61783845 0.6520106999999999 0.70056931 0.82486954 0.92153559 0.97288062 1.0792456 1.1797202 1.1043549 0.92291354 0.86881536
-0.70857317 -0.73420062 -0.7671118 -0.74069201 -0.69700841 -0.73888966 -0.84594789 -0.90054696 -0.88965082 -0.88327915 -0.92932783 -1.0130808 -1.1151389999999999 -1.2142127 -1.2802051 -1.2905437 -1.29888 -1.4081455 -1.5917251000000001 -1.6842284 -1.6191126 -1.557851 -1.6148191 -1.6866895 -1.6487589 -1.5526325 -1.4598861 -1.318757 -1.1241276000000002 -0.9834759 -0.91710525 -0.76622029 -0.43579614 -0.062335482000000005 0.14745944 0.20885403 0.29907317 0.48150119999999996 0.61783845 0.6520106999999999 0.70056931 0.82486954 0.92153559 0.97288062 1.0792456 1.1797202 1.1043549 0.92291354 0.86881536 0.92704209
-0.73420062 -0.7671118 -0.74069201 -0.69700841 -0.73888966 -0.84594789 -0.90054696 -0.88965082 -0.88327915 -0.92932783 -1.0130808 -1.1151389999999999 -1.2142127 -1.2802051 -1.2905437 -1.29888 -1.4081455 -1.5917251000000001 -1.6842284 -1.6191126 -1.557851 -1.6148191 -1.6866895 -1.6487589 -1.5526325 -1.4598861 -1.318757 -1.1241276000000002 -0.9834759 -0.91710525 -0.76622029 -0.43579614 -0.062335482000000005 0.14745944 0.20885403 0.29907317 0.48150119999999996 0.61783845 0.6520106999999999 0.70056931 0.82486954 0.92153559 0.97288062 1.0792456 1.1797202 1.1043549 0.92291354 0.86881536 0.92704209 0.92671744
-0.7671118 -0.74069201 -0.69700841 -0.73888966 -0.84594789 -0.90054696 -0.88965082 -0.88327915 -0.92932783 -1.0130808 -1.1151389999999999 -1.2142127 -1.2802051 -1.2905437 -1.29888 -1.4081455 -1.5917251000000001 -1.6842284 -1.6191126 -1.557851 -1.6148191 -1.6866895 -1.6487589 -1.5526325 -1.4598861 -1.318757 -1.1241276000000002 -0.9834759 -0.91710525 -0.76622029 -0.43579614 -0.062335482000000005 0.14745944 0.20885403 0.29907317 0.48150119999999996 0.61783845 0.6520106999999999 0.70056931 0.82486954 0.92153559 0.97288062 1.0792456 1.1797202 1.1043549 0.92291354 0.86881536 0.92704209 0.92671744 0.88343312
-0.74069201 -0.69700841 -0.73888966 -0.84594789 -0.90054696 -0.88965082 -0.88327915 -0.92932783 -1.0130808 -1.1151389999999999 -1.2142127 -1.2802051 -1.2905437 -1.29888 -1.4081455 -1.5917251000000001 -1.6842284 -1.6191126 -1.557851 -1.6148191 -1.6866895 -1.6487589 -1.5526325 -1.4598861 -1.318757 -1.1241276000000002 -0.9834759 -0.91710525 -0.76622029 -0.43579614 -0.062335482000000005 0.14745944 0.20885403 0.29907317 0.48150119999999996 0.61783845 0.6520106999999999 0.70056931 0.82486954 0.92153559 0.97288062 1.0792456 1.1797202 1.1043549 0.92291354 0.86881536 0.92704209 0.92671744 0.88343312 0.89989121
-0.69700841 -0.73888966 -0.84594789 -0.90054696 -0.88965082 -0.88327915 -0.92932783 -1.0130808 -1.1151389999999999 -1.2142127 -1.2802051 -1.2905437 -1.29888 -1.4081455 -1.5917251000000001 -1.6842284 -1.6191126 -1.557851 -1.6148191 -1.6866895 -1.6487589 -1.5526325 -1.4598861 -1.318757 -1.1241276000000002 -0.9834759 -0.91710525 -0.76622029 -0.43579614 -0.062335482000000005 0.14745944 0.20885403 0.29907317 0.48150119999999996 0.61783845 0.6520106999999999 0.70056931 0.82486954 0.92153559 0.97288062 1.0792456 1.1797202 1.1043549 0.92291354 0.86881536 0.92704209 0.92671744 0.88343312 0.89989121 0.89992495
-0.73888966 -0.84594789 -0.90054696 -0.88965082 -0.88327915 -0.92932783 -1.0130808 -1.1151389999999999 -1.2142127 -1.2802051 -1.2905437 -1.29888 -1.4081455 -1.5917251000000001 -1.6842284 -1.6191126 -1.557851 -1.6148191 -1.6866895 -1.6487589 -1.5526325 -1.4598861 -1.318757 -1.1241276000000002 -0.9834759 -0.91710525 -0.76622029 -0.43579614 -0.062335482000000005 0.14745944 0.20885403 0.29907317 0.48150119999999996 0.61783845 0.6520106999999999 0.70056931 0.82486954 0.92153559 0.97288062 1.0792456 1.1797202 1.1043549 0.92291354 0.86881536 0.92704209 0.92671744 0.88343312 0.89989121 0.89992495 0.84428614
-0.84594789 -0.90054696 -0.88965082 -0.88327915 -0.92932783 -1.0130808 -1.1151389999999999 -1.2142127 -1.2802051 -1.2905437 -1.29888 -1.4081455 -1.5917251000000001 -1.6842284 -1.6191126 -1.557851 -1.6148191 -1.6866895 -1.6487589 -1.5526325 -1.4598861 -1.318757 -1.1241276000000002 -0.9834759 -0.91710525 -0.76622029 -0.43579614 -0.062335482000000005 0.14745944 0.20885403 0.29907317 0.48150119999999996 0.61783845 0.6520106999999999 0.70056931 0.82486954 0.92153559 0.97288062 1.0792456 1.1797202 1.1043549 0.92291354 0.86881536 0.92704209 0.92671744 0.88343312 0.89989121 0.89992495 0.84428614 0.87548042
-0.90054696 -0.88965082 -0.88327915 -0.92932783 -1.0130808 -1.1151389999999999 -1.2142127 -1.2802051 -1.2905437 -1.29888 -1.4081455 -1.5917251000000001 -1.6842284 -1.6191126 -1.557851 -1.6148191 -1.6866895 -1.6487589 -1.5526325 -1.4598861 -1.318757 -1.1241276000000002 -0.9834759 -0.91710525 -0.76622029 -0.43579614 -0.062335482000000005 0.14745944 0.20885403 0.29907317 0.48150119999999996 0.61783845 0.6520106999999999 0.70056931 0.82486954 0.92153559 0.97288062 1.0792456 1.1797202 1.1043549 0.92291354 0.86881536 0.92704209 0.92671744 0.88343312 0.89989121 0.89992495 0.84428614 0.87548042 0.98458243
-0.88965082 -0.88327915 -0.92932783 -1.0130808 -1.1151389999999999 -1.2142127 -1.2802051 -1.2905437 -1.29888 -1.4081455 -1.5917251000000001 -1.6842284 -1.6191126 -1.557851 -1.6148191 -1.6866895 -1.6487589 -1.5526325 -1.4598861 -1.318757 -1.1241276000000002 -0.9834759 -0.91710525 -0.76622029 -0.43579614 -0.062335482000000005 0.14745944 0.20885403 0.29907317 0.48150119999999996 0.61783845 0.6520106999999999 0.70056931 0.82486954 0.92153559 0.97288062 1.0792456 1.1797202 1.1043549 0.92291354 0.86881536 0.92704209 0.92671744 0.88343312 0.89989121 0.89992495 0.84428614 0.87548042 0.98458243 0.91121158
-0.88327915 -0.92932783 -1.0130808 -1.1151389999999999 -1.2142127 -1.2802051 -1.2905437 -1.29888 -1.4081455 -1.5917251000000001 -1.6842284 -1.6191126 -1.557851 -1.6148191 -1.6866895 -1.6487589 -1.5526325 -1.4598861 -1.318757 -1.1241276000000002 -0.9834759 -0.91710525 -0.76622029 -0.43579614 -0.062335482000000005 0.14745944 0.20885403 0.29907317 0.48150119999999996 0.61783845 0.6520106999999999 0.70056931 0.82486954 0.92153559 0.97288062 1.0792456 1.1797202 1.1043549 0.92291354 0.86881536 0.92704209 0.92671744 0.88343312 0.89989121 0.89992495 0.84428614 0.87548042 0.98458243 0.91121158 0.64469009
-0.92932783 -1.0130808 -1.1151389999999999 -1.2142127 -1.2802051 -1.2905437 -1.29888 -1.4081455 -1.5917251000000001 -1.6842284 -1.6191126 -1.557851 -1.6148191 -1.6866895 -1.6487589 -1.5526325 -1.4598861 -1.318757 -1.1241276000000002 -0.9834759 -0.91710525 -0.76622029 -0.43579614 -0.062335482000000005 0.14745944 0.20885403 0.29907317 0.48150119999999996 0.61783845 0.6520106999999999 0.70056931 0.82486954 0.92153559 0.97288062 1.0792456 1.1797202 1.1043549 0.92291354 0.86881536 0.92704209 0.92671744 0.88343312 0.89989121 0.89992495 0.84428614 0.87548042 0.98458243 0.91121158 0.64469009 0.54624229
-1.0130808 -1.1151389999999999 -1.2142127 -1.2802051 -1.2905437 -1.29888 -1.4081455 -1.5917251000000001 -1.6842284 -1.6191126 -1.557851 -1.6148191 -1.6866895 -1.6487589 -1.5526325 -1.4598861 -1.318757 -1.1241276000000002 -0.9834759 -0.91710525 -0.76622029 -0.43579614 -0.062335482000000005 0.14745944 0.20885403 0.29907317 0.48150119999999996 0.61783845 0.6520106999999999 0.70056931 0.82486954 0.92153559 0.97288062 1.0792456 1.1797202 1.1043549 0.92291354 0.86881536 0.92704209 0.92671744 0.88343312 0.89989121 0.89992495 0.84428614 0.87548042 0.98458243 0.91121158 0.64469009 0.54624229 0.7488074
-1.1151389999999999 -1.2142127 -1.2802051 -1.2905437 -1.29888 -1.4081455 -1.5917251000000001 -1.6842284 -1.6191126 -1.557851 -1.6148191 -1.6866895 -1.6487589 -1.5526325 -1.4598861 -1.318757 -1.1241276000000002 -0.9834759 -0.91710525 -0.76622029 -0.43579614 -0.062335482000000005 0.14745944 0.20885403 0.29907317 0.48150119999999996 0.61783845 0.6520106999999999 0.70056931 0.82486954 0.92153559 0.97288062 1.0792456 1.1797202 1.1043549 0.92291354 0.86881536 0.92704209 0.92671744 0.88343312 0.89989121 0.89992495 0.84428614 0.87548042 0.98458243 0.91121158 0.64469009 0.54624229 0.7488074 0.90480019
-1.2142127 -1.2802051 -1.2905437 -1.29888 -1.4081455 -1.5917251000000001 -1.6842284 -1.6191126 -1.557851 -1.6148191 -1.6866895 -1.6487589 -1.5526325 -1.4598861 -1.318757 -1.1241276000000002 -0.9834759 -0.91710525 -0.76622029 -0.43579614 -0.062335482000000005 0.14745944 0.20885403 0.29907317 0.48150119999999996 0.61783845 0.6520106999999999 0.70056931 0.82486954 0.92153559 0.97288062 1.0792456 1.1797202 1.1043549 0.92291354 0.86881536 0.92704209 0.92671744 0.88343312 0.89989121 0.89992495 0.84428614 0.87548042 0.98458243 0.91121158 0.64469009 0.54624229 0.7488074 0.90480019 0.76474744
-1.2802051 -1.2905437 -1.29888 -1.4081455 -1.5917251000000001 -1.6842284 -1.6191126 -1.557851 -1.6148191 -1.6866895 -1.6487589 -1.5526325 -1.4598861 -1.318757 -1.1241276000000002 -0.9834759 -0.91710525 -0.76622029 -0.43579614 -0.062335482000000005 0.14745944 0.20885403 0.29907317 0.48150119999999996 0.61783845 0.6520106999999999 0.70056931 0.82486954 0.92153559 0.97288062 1.0792456 1.1797202 1.1043549 0.92291354 0.86881536 0.92704209 0.92671744 0.88343312 0.89989121 0.89992495 0.84428614 0.87548042 0.98458243 0.91121158 0.64469009 0.54624229 0.7488074 0.90480019 0.76474744 0.56709375
-1.2905437 -1.29888 -1.4081455 -1.5917251000000001 -1.6842284 -1.6191126 -1.557851 -1.6148191 -1.6866895 -1.6487589 -1.5526325 -1.4598861 -1.318757 -1.1241276000000002 -0.9834759 -0.91710525 -0.76622029 -0.43579614 -0.062335482000000005 0.14745944 0.20885403 0.29907317 0.48150119999999996 0.61783845 0.6520106999999999 0.70056931 0.82486954 0.92153559 0.97288062 1.0792456 1.1797202 1.1043549 0.92291354 0.86881536 0.92704209 0.92671744 0.88343312 0.89989121 0.89992495 0.84428614 0.87548042 0.98458243 0.91121158 0.64469009 0.54624229 0.7488074 0.90480019 0.76474744 0.56709375 0.63114909
-1.29888 -1.4081455 -1.5917251000000001 -1.6842284 -1.6191126 -1.557851 -1.6148191 -1.6866895 -1.6487589 -1.5526325 -1.4598861 -1.318757 -1.1241276000000002 -0.9834759 -0.91710525 -0.76622029 -0.43579614 -0.062335482000000005 0.14745944 0.20885403 0.29907317 0.48150119999999996 0.61783845 0.6520106999999999 0.70056931 0.82486954 0.92153559 0.97288062 1.0792456 1.1797202 1.1043549 0.92291354 0.86881536 0.92704209 0.92671744 0.88343312 0.89989121 0.89992495 0.84428614 0.87548042 0.98458243 0.91121158 0.64469009 0.54624229 0.7488074 0.90480019 0.76474744 0.56709375 0.63114909 0.91368603
-1.4081455 -1.5917251000000001 -1.6842284 -1.6191126 -1.557851 -1.6148191 -1.6866895 -1.6487589 -1.5526325 -1.4598861 -1.318757 -1.1241276000000002 -0.9834759 -0.91710525 -0.76622029 -0.43579614 -0.062335482000000005 0.14745944 0.20885403 0.29907317 0.48150119999999996 0.61783845 0.6520106999999999 0.70056931 0.82486954 0.92153559 0.97288062 1.0792456 1.1797202 1.1043549 0.92291354 0.86881536 0.92704209 0.92671744 0.88343312 0.89989121 0.89992495 0.84428614 0.87548042 0.98458243 0.91121158 0.64469009 0.54624229 0.7488074 0.90480019 0.76474744 0.56709375 0.63114909 0.91368603 1.1599834
-1.5917251000000001 -1.6842284 -1.6191126 -1.557851 -1.6148191 -1.6866895 -1.6487589 -1.5526325 -1.4598861 -1.318757 -1.1241276000000002 -0.9834759 -0.91710525 -0.76622029 -0.43579614 -0.062335482000000005 0.14745944 0.20885403 0.29907317 0.48150119999999996 0.61783845 0.6520106999999999 0.70056931 0.82486954 0.92153559 0.97288062 1.0792456 1.1797202 1.1043549 0.92291354 0.86881536 0.92704209 0.92671744 0.88343312 0.89989121 0.89992495 0.84428614 0.87548042 0.98458243 0.91121158 0.64469009 0.54624229 0.7488074 0.90480019 0.76474744 0.56709375 0.63114909 0.91368603 1.1599834 1.2499886999999998
-1.6842284 -1.6191126 -1.557851 -1.6148191 -1.6866895 -1.6487589 -1.5526325 -1.4598861 -1.318757 -1.1241276000000002 -0.9834759 -0.91710525 -0.76622029 -0.43579614 -0.062335482000000005 0.14745944 0.20885403 0.29907317 0.48150119999999996 0.61783845 0.6520106999999999 0.70056931 0.82486954 0.92153559 0.97288062 1.0792456 1.1797202 1.1043549 0.92291354 0.86881536 0.92704209 0.92671744 0.88343312 0.89989121 0.89992495 0.84428614 0.87548042 0.98458243 0.91121158 0.64469009 0.54624229 0.7488074 0.90480019 0.76474744 0.56709375 0.63114909 0.91368603 1.1599834 1.2499886999999998 1.2580716
-1.6191126 -1.557851 -1.6148191 -1.6866895 -1.6487589 -1.5526325 -1.4598861 -1.318757 -1.1241276000000002 -0.9834759 -0.91710525 -0.76622029 -0.43579614 -0.062335482000000005 0.14745944 0.20885403 0.29907317 0.48150119999999996 0.61783845 0.6520106999999999 0.70056931 0.82486954 0.92153559 0.97288062 1.0792456 1.1797202 1.1043549 0.92291354 0.86881536 0.92704209 0.92671744 0.88343312 0.89989121 0.89992495 0.84428614 0.87548042 0.98458243 0.91121158 0.64469009 0.54624229 0.7488074 0.90480019 0.76474744 0.56709375 0.63114909 0.91368603 1.1599834 1.2499886999999998 1.2580716 1.293779
-1.557851 -1.6148191 -1.6866895 -1.6487589 -1.5526325 -1.4598861 -1.318757 -1.1241276000000002 -0.9834759 -0.91710525 -0.76622029 -0.43579614 -0.062335482000000005 0.14745944 0.20885403 0.29907317 0.48150119999999996 0.61783845 0.6520106999999999 0.70056931 0.82486954 0.92153559 0.97288062 1.0792456 1.1797202 1.1043549 0.92291354 0.86881536 0.92704209 0.92671744 0.88343312 0.89989121 0.89992495 0.84428614 0.87548042 0.98458243 0.91121158 0.64469009 0.54624229 0.7488074 0.90480019 0.76474744 0.56709375 0.63114909 0.91368603 1.1599834 1.2499886999999998 1.2580716 1.293779 1.3502427
-1.6148191 -1.6866895 -1.6487589 -1.5526325 -1.4598861 -1.318757 -1.1241276000000002 -0.9834759 -0.91710525 -0.76622029 -0.43579614 -0.062335482000000005 0.14745944 0.20885403 0.29907317 0.48150119999999996 0.61783845 0.6520106999999999 0.70056931 0.82486954 0.92153559 0.97288062 1.0792456 1.1797202 1.1043549 0.92291354 0.86881536 0.92704209 0.92671744 0.88343312 0.89989121 0.89992495 0.84428614 0.87548042 0.98458243 0.91121158 0.64469009 0.54624229 0.7488074 0.90480019 0.76474744 0.56709375 0.63114909 0.91368603 1.1599834 1.2499886999999998 1.2580716 1.293779 1.3502427 1.3011068000000001
-1.6866895 -1.6487589 -1.5526325 -1.4598861 -1.318757 -1.1241276000000002 -0.9834759 -0.91710525 -0.76622029 -0.43579614 -0.062335482000000005 0.14745944 0.20885403 0.29907317 0.48150119999999996 0.61783845 0.6520106999999999 0.70056931 0.82486954 0.92153559 0.97288062 1.0792456 1.1797202 1.1043549 0.92291354 0.86881536 0.92704209 0.92671744 0.88343312 0.89989121 0.89992495 0.84428614 0.87548042 0.98458243 0.91121158 0.64469009 0.54624229 0.7488074 0.90480019 0.76474744 0.56709375 0.63114909 0.91368603 1.1599834 1.2499886999999998 1.2580716 1.293779 1.3502427 1.3011068000000001 1.088284
-1.6487589 -1.5526325 -1.4598861 -1.318757 -1.1241276000000002 -0.9834759 -0.91710525 -0.76622029 -0.43579614 -0.062335482000000005 0.14745944 0.20885403 0.29907317 0.48150119999999996 0.61783845 0.6520106999999999 0.70056931 0.82486954 0.92153559 0.97288062 1.0792456 1.1797202 1.1043549 0.92291354 0.86881536 0.92704209 0.92671744 0.88343312 0.89989121 0.89992495 0.84428614 0.87548042 0.98458243 0.91121158 0.64469009 0.54624229 0.7488074 0.90480019 0.76474744 0.56709375 0.63114909 0.91368603 1.1599834 1.2499886999999998 1.2580716 1.293779 1.3502427 1.3011068000000001 1.088284 0.86683333
-1.5526325 -1.4598861 -1.318757 -1.1241276000000002 -0.9834759 -0.91710525 -0.76622029 -0.43579614 -0.062335482000000005 0.14745944 0.20885403 0.29907317 0.48150119999999996 0.61783845 0.6520106999999999 0.70056931 0.82486954 0.92153559 0.97288062 1.0792456 1.1797202 1.1043549 0.92291354 0.86881536 0.92704209 0.92671744 0.88343312 0.89989121 0.89992495 0.84428614 0.87548042 0.98458243 0.91121158 0.64469009 0.54624229 0.7488074 0.90480019 0.76474744 0.56709375 0.63114909 0.91368603 1.1599834 1.2499886999999998 1.2580716 1.293779 1.3502427 1.3011068000000001 1.088284 0.86683333 0.81277952
-1.4598861 -1.318757 -1.1241276000000002 -0.9834759 -0.91710525 -0.76622029 -0.43579614 -0.062335482000000005 0.14745944 0.20885403 0.29907317 0.48150119999999996 0.61783845 0.6520106999999999 0.70056931 0.82486954 0.92153559 0.97288062 1.0792456 1.1797202 1.1043549 0.92291354 0.86881536 0.92704209 0.92671744 0.88343312 0.89989121 0.89992495 0.84428614 0.87548042 0.98458243 0.91121158 0.64469009 0.54624229 0.7488074 0.90480019 0.76474744 0.56709375 0.63114909 0.91368603 1.1599834 1.2499886999999998 1.2580716 1.293779 1.3502427 1.3011068000000001 1.088284 0.86683333 0.81277952 0.85454896
-1.318757 -1.1241276000000002 -0.9834759 -0.91710525 -0.76622029 -0.43579614 -0.062335482000000005 0.14745944 0.20885403 0.29907317 0.48150119999999996 0.61783845 0.6520106999999999 0.70056931 0.82486954 0.92153559 0.97288062 1.0792456 1.1797202 1.1043549 0.92291354 0.86881536 0.92704209 0.92671744 0.88343312 0.89989121 0.89992495 0.84428614 0.87548042 0.98458243 0.91121158 0.64469009 0.54624229 0.7488074 0.90480019 0.76474744 0.56709375 0.63114909 0.91368603 1.1599834 1.2499886999999998 1.2580716 1.293779 1.3502427 1.3011068000000001 1.088284 0.86683333 0.81277952 0.85454896 0.81905006
-1.1241276000000002 -0.9834759 -0.91710525 -0.76622029 -0.43579614 -0.062335482000000005 0.14745944 0.20885403 0.29907317 0.48150119999999996 0.61783845 0.6520106999999999 0.70056931 0.82486954 0.92153559 0.97288062 1.0792456 1.1797202 1.1043549 0.92291354 0.86881536 0.92704209 0.92671744 0.88343312 0.89989121 0.89992495 0.84428614 0.87548042 0.98458243 0.91121158 0.64469009 0.54624229 0.7488074 0.90480019 0.76474744 0.56709375 0.63114909 0.91368603 1.1599834 1.2499886999999998 1.2580716 1.293779 1.3502427 1.3011068000000001 1.088284 0.86683333 0.81277952 0.85454896 0.81905006 0.76497783
-0.9834759 -0.91710525 -0.76622029 -0.43579614 -0.062335482000000005 0.14745944 0.20885403 0.29907317 0.48150119999999996 0.61783845 0.6520106999999999 0.70056931 0.82486954 0.92153559 0.97288062 1.0792456 1.1797202 1.1043549 0.92291354 0.86881536 0.92704209 0.92671744 0.88343312 0.89989121 0.89992495 0.84428614 0.87548042 0.98458243 0.91121158 0.64469009 0.54624229 0.7488074 0.90480019 0.76474744 0.56709375 0.63114909 0.91368603 1.1599834 1.2499886999999998 1.2580716 1.293779 1.3502427 1.3011068000000001 1.088284 0.86683333 0.81277952 0.85454896 0.81905006 0.76497783 0.87610327
-0.91710525 -0.76622029 -0.43579614 -0.062335482000000005 0.14745944 0.20885403 0.29907317 0.48150119999999996 0.61783845 0.6520106999999999 0.70056931 0.82486954 0.92153559 0.97288062 1.0792456 1.1797202 1.1043549 0.92291354 0.86881536 0.92704209 0.92671744 0.88343312 0.89989121 0.89992495 0.84428614 0.87548042 0.98458243 0.91121158 0.64469009 0.54624229 0.7488074 0.90480019 0.76474744 0.56709375 0.63114909 0.91368603 1.1599834 1.2499886999999998 1.2580716 1.293779 1.3502427 1.3011068000000001 1.088284 0.86683333 0.81277952 0.85454896 0.81905006 0.76497783 0.87610327 1.0859014999999999
-0.76622029 -0.43579614 -0.062335482000000005 0.14745944 0.20885403 0.29907317 0.48150119999999996 0.61783845 0.6520106999999999 0.70056931 0.82486954 0.92153559 0.97288062 1.0792456 1.1797202 1.1043549 0.92291354 0.86881536 0.92704209 0.92671744 0.88343312 0.89989121 0.89992495 0.84428614 0.87548042 0.98458243 0.91121158 0.64469009 0.54624229 0.7488074 0.90480019 0.76474744 0.56709375 0.63114909 0.91368603 1.1599834 1.2499886999999998 1.2580716 1.293779 1.3502427 1.3011068000000001 1.088284 0.86683333 0.81277952 0.85454896 0.81905006 0.76497783 0.87610327 1.0859014999999999 1.1447178
-0.43579614 -0.062335482000000005 0.14745944 0.20885403 0.29907317 0.48150119999999996 0.61783845 0.6520106999999999 0.70056931 0.82486954 0.92153559 0.97288062 1.0792456 1.1797202 1.1043549 0.92291354 0.86881536 0.92704209 0.92671744 0.88343312 0.89989121 0.89992495 0.84428614 0.87548042 0.98458243 0.91121158 0.64469009 0.54624229 0.7488074 0.90480019 0.76474744 0.56709375 0.63114909 0.91368603 1.1599834 1.2499886999999998 1.2580716 1.293779 1.3502427 1.3011068000000001 1.088284 0.86683333 0.81277952 0.85454896 0.81905006 0.76497783 0.87610327 1.0859014999999999 1.1447178 1.0219842
-0.062335482000000005 0.14745944 0.20885403 0.29907317 0.48150119999999996 0.61783845 0.6520106999999999 0.70056931 0.82486954 0.92153559 0.97288062 1.0792456 1.1797202 1.1043549 0.92291354 0.86881536 0.92704209 0.92671744 0.88343312 0.89989121 0.89992495 0.84428614 0.87548042 0.98458243 0.91121158 0.64469009 0.54624229 0.7488074 0.90480019 0.76474744 0.56709375 0.63114909 0.91368603 1.1599834 1.2499886999999998 1.2580716 1.293779 1.3502427 1.3011068000000001 1.088284 0.86683333 0.81277952 0.85454896 0.81905006 0.76497783 0.87610327 1.0859014999999999 1.1447178 1.0219842 0.92982741
0.14745944 0.20885403 0.29907317 0.48150119999999996 0.61783845 0.6520106999999999 0.70056931 0.82486954 0.92153559 0.97288062 1.0792456 1.1797202 1.1043549 0.92291354 0.86881536 0.92704209 0.92671744 0.88343312 0.89989121 0.89992495 0.84428614 0.87548042 0.98458243 0.91121158 0.64469009 0.54624229 0.7488074 0.90480019 0.76474744 0.56709375 0.63114909 0.91368603 1.1599834 1.2499886999999998 1.2580716 1.293779 1.3502427 1.3011068000000001 1.088284 0.86683333 0.81277952 0.85454896 0.81905006 0.76497783 0.87610327 1.0859014999999999 1.1447178 1.0219842 0.92982741 0.9638793999999999
0.20885403 0.29907317 0.48150119999999996 0.61783845 0.6520106999999999 0.70056931 0.82486954 0.92153559 0.97288062 1.0792456 1.1797202 1.1043549 0.92291354 0.86881536 0.92704209 0.92671744 0.88343312 0.89989121 0.89992495 0.84428614 0.87548042 0.98458243 0.91121158 0.64469009 0.54624229 0.7488074 0.90480019 0.76474744 0.56709375 0.63114909 0.91368603 1.1599834 1.2499886999999998 1.2580716 1.293779 1.3502427 1.3011068000000001 1.088284 0.86683333 0.81277952 0.85454896 0.81905006 0.76497783 0.87610327 1.0859014999999999 1.1447178 1.0219842 0.92982741 0.9638793999999999 1.0141616
