0.73059393 0.95465401 2.7894027 3.2344186 2.150623 0.90708836 0.41094624 0.84251916 0.99018514 0.91588143 0.60915066 0.25079411 -0.42775694 -0.73149665 -0.67576141 -0.92615471 -0.94312642 -0.99803908 -1.0254685 -1.1094104999999999 -1.2707568999999999 -1.1801883999999998 -1.4132684 -1.5289883999999998 -1.4711502 -1.6987964 -1.6617326000000001 -1.7457081 -1.9472569 -1.9375064999999998 -2.0973895000000002 -2.0953513 -1.8553921999999998 -1.8460876 -1.7779234 -1.202581 -0.75234162 -0.49988437 -0.037612581 0.31936744 0.61618064 0.74958163 0.87424134 1.0046299 0.89485371 0.98149708 0.89402279 0.69172868 0.6479818 0.58824562
0.95465401 2.7894027 3.2344186 2.150623 0.90708836 0.41094624 0.84251916 0.99018514 0.91588143 0.60915066 0.25079411 -0.42775694 -0.73149665 -0.67576141 -0.92615471 -0.94312642 -0.99803908 -1.0254685 -1.1094104999999999 -1.2707568999999999 -1.1801883999999998 -1.4132684 -1.5289883999999998 -1.4711502 -1.6987964 -1.6617326000000001 -1.7457081 -1.9472569 -1.9375064999999998 -2.0973895000000002 -2.0953513 -1.8553921999999998 -1.8460876 -1.7779234 -1.202581 -0.75234162 -0.49988437 -0.037612581 0.31936744 0.61618064 0.74958163 0.87424134 1.0046299 0.89485371 0.98149708 0.89402279 0.69172868 0.6479818 0.58824562 0.66833144
2.7894027 3.2344186 2.150623 0.90708836 0.41094624 0.84251916 0.99018514 0.91588143 0.60915066 0.25079411 -0.42775694 -0.73149665 -0.67576141 -0.92615471 -0.94312642 -0.99803908 -1.0254685 -1.1094104999999999 -1.2707568999999999 -1.1801883999999998 -1.4132684 -1.5289883999999998 -1.4711502 -1.6987964 -1.6617326000000001 -1.7457081 -1.9472569 -1.9375064999999998 -2.0973895000000002 -2.0953513 -1.8553921999999998 -1.8460876 -1.7779234 -1.202581 -0.75234162 -0.49988437 -0.037612581 0.31936744 0.61618064 0.74958163 0.87424134 1.0046299 0.89485371 0.98149708 0.89402279 0.69172868 0.6479818 0.58824562 0.66833144 0.66425224
3.2344186 2.150623 0.90708836 0.41094624 0.84251916 0.99018514 0.91588143 0.60915066 0.25079411 -0.42775694 -0.73149665 -0.67576141 -0.92615471 -0.94312642 -0.99803908 -1.0254685 -1.1094104999999999 -1.2707568999999999 -1.1801883999999998 -1.4132684 -1.5289883999999998 -1.4711502 -1.6987964 -1.6617326000000001 -1.7457081 -1.9472569 -1.9375064999999998 -2.0973895000000002 -2.0953513 -1.8553921999999998 -1.8460876 -1.7779234 -1.202581 -0.75234162 -0.49988437 -0.037612581 0.31936744 0.61618064 0.74958163 0.87424134 1.0046299 0.89485371 0.98149708 0.89402279 0.69172868 0.6479818 0.58824562 0.66833144 0.66425224 0.52641713
2.150623 0.90708836 0.41094624 0.84251916 0.99018514 0.91588143 0.60915066 0.25079411 -0.42775694 -0.73149665 -0.67576141 -0.92615471 -0.94312642 -0.99803908 -1.0254685 -1.1094104999999999 -1.2707568999999999 -1.1801883999999998 -1.4132684 -1.5289883999999998 -1.4711502 -1.6987964 -1.6617326000000001 -1.7457081 -1.9472569 -1.9375064999999998 -2.0973895000000002 -2.0953513 -1.8553921999999998 -1.8460876 -1.7779234 -1.202581 -0.75234162 -0.49988437 -0.037612581 0.31936744 0.61618064 0.74958163 0.87424134 1.0046299 0.89485371 0.98149708 0.89402279 0.69172868 0.6479818 0.58824562 0.66833144 0.66425224 0.52641713 0.54798041
0.90708836 0.41094624 0.84251916 0.99018514 0.91588143 0.60915066 0.25079411 -0.42775694 -0.73149665 -0.67576141 -0.92615471 -0.94312642 -0.99803908 -1.0254685 -1.1094104999999999 -1.2707568999999999 -1.1801883999999998 -1.4132684 -1.5289883999999998 -1.4711502 -1.6987964 -1.6617326000000001 -1.7457081 -1.9472569 -1.9375064999999998 -2.0973895000000002 -2.0953513 -1.8553921999999998 -1.8460876 -1.7779234 -1.202581 -0.75234162 -0.49988437 -0.037612581 0.31936744 0.61618064 0.74958163 0.87424134 1.0046299 0.89485371 0.98149708 0.89402279 0.69172868 0.6479818 0.58824562 0.66833144 0.66425224 0.52641713 0.54798041 0.62124967
0.41094624 0.84251916 0.99018514 0.91588143 0.60915066 0.25079411 -0.42775694 -0.73149665 -0.67576141 -0.92615471 -0.94312642 -0.99803908 -1.0254685 -1.1094104999999999 -1.2707568999999999 -1.1801883999999998 -1.4132684 -1.5289883999999998 -1.4711502 -1.6987964 -1.6617326000000001 -1.7457081 -1.9472569 -1.9375064999999998 -2.0973895000000002 -2.0953513 -1.8553921999999998 -1.8460876 -1.7779234 -1.202581 -0.75234162 -0.49988437 -0.037612581 0.31936744 0.61618064 0.74958163 0.87424134 1.0046299 0.89485371 0.98149708 0.89402279 0.69172868 0.6479818 0.58824562 0.66833144 0.66425224 0.52641713 0.54798041 0.62124967 0.56069211
0.84251916 0.99018514 0.91588143 0.60915066 0.25079411 -0.42775694 -0.73149665 -0.67576141 -0.92615471 -0.94312642 -0.99803908 -1.0254685 -1.1094104999999999 -1.2707568999999999 -1.1801883999999998 -1.4132684 -1.5289883999999998 -1.4711502 -1.6987964 -1.6617326000000001 -1.7457081 -1.9472569 -1.9375064999999998 -2.0973895000000002 -2.0953513 -1.8553921999999998 -1.8460876 -1.7779234 -1.202581 -0.75234162 -0.49988437 -0.037612581 0.31936744 0.61618064 0.74958163 0.87424134 1.0046299 0.89485371 0.98149708 0.89402279 0.69172868 0.6479818 0.58824562 0.66833144 0.66425224 0.52641713 0.54798041 0.62124967 0.56069211 0.49561756
0.99018514 0.91588143 0.60915066 0.25079411 -0.42775694 -0.73149665 -0.67576141 -0.92615471 -0.94312642 -0.99803908 -1.0254685 -1.1094104999999999 -1.2707568999999999 -1.1801883999999998 -1.4132684 -1.5289883999999998 -1.4711502 -1.6987964 -1.6617326000000001 -1.7457081 -1.9472569 -1.9375064999999998 -2.0973895000000002 -2.0953513 -1.8553921999999998 -1.8460876 -1.7779234 -1.202581 -0.75234162 -0.49988437 -0.037612581 0.31936744 0.61618064 0.74958163 0.87424134 1.0046299 0.89485371 0.98149708 0.89402279 0.69172868 0.6479818 0.58824562 0.66833144 0.66425224 0.52641713 0.54798041 0.62124967 0.56069211 0.49561756 0.48645276
0.91588143 0.60915066 0.25079411 -0.42775694 -0.73149665 -0.67576141 -0.92615471 -0.94312642 -0.99803908 -1.0254685 -1.1094104999999999 -1.2707568999999999 -1.1801883999999998 -1.4132684 -1.5289883999999998 -1.4711502 -1.6987964 -1.6617326000000001 -1.7457081 -1.9472569 -1.9375064999999998 -2.0973895000000002 -2.0953513 -1.8553921999999998 -1.8460876 -1.7779234 -1.202581 -0.75234162 -0.49988437 -0.037612581 0.31936744 0.61618064 0.74958163 0.87424134 1.0046299 0.89485371 0.98149708 0.89402279 0.69172868 0.6479818 0.58824562 0.66833144 0.66425224 0.52641713 0.54798041 0.62124967 0.56069211 0.49561756 0.48645276 0.64269558
0.60915066 0.25079411 -0.42775694 -0.73149665 -0.67576141 -0.92615471 -0.94312642 -0.99803908 -1.0254685 -1.1094104999999999 -1.2707568999999999 -1.1801883999999998 -1.4132684 -1.5289883999999998 -1.4711502 -1.6987964 -1.6617326000000001 -1.7457081 -1.9472569 -1.9375064999999998 -2.0973895000000002 -2.0953513 -1.8553921999999998 -1.8460876 -1.7779234 -1.202581 -0.75234162 -0.49988437 -0.037612581 0.31936744 0.61618064 0.74958163 0.87424134 1.0046299 0.89485371 0.98149708 0.89402279 0.69172868 0.6479818 0.58824562 0.66833144 0.66425224 0.52641713 0.54798041 0.62124967 0.56069211 0.49561756 0.48645276 0.64269558 0.51214309
0.25079411 -0.42775694 -0.73149665 -0.67576141 -0.92615471 -0.94312642 -0.99803908 -1.0254685 -1.1094104999999999 -1.2707568999999999 -1.1801883999999998 -1.4132684 -1.5289883999999998 -1.4711502 -1.6987964 -1.6617326000000001 -1.7457081 -1.9472569 -1.9375064999999998 -2.0973895000000002 -2.0953513 -1.8553921999999998 -1.8460876 -1.7779234 -1.202581 -0.75234162 -0.49988437 -0.037612581 0.31936744 0.61618064 0.74958163 0.87424134 1.0046299 0.89485371 0.98149708 0.89402279 0.69172868 0.6479818 0.58824562 0.66833144 0.66425224 0.52641713 0.54798041 0.62124967 0.56069211 0.49561756 0.48645276 0.64269558 0.51214309 0.39921706
-0.42775694 -0.73149665 -0.67576141 -0.92615471 -0.94312642 -0.99803908 -1.0254685 -1.1094104999999999 -1.2707568999999999 -1.1801883999999998 -1.4132684 -1.5289883999999998 -1.4711502 -1.6987964 -1.6617326000000001 -1.7457081 -1.9472569 -1.9375064999999998 -2.0973895000000002 -2.0953513 -1.8553921999999998 -1.8460876 -1.7779234 -1.202581 -0.75234162 -0.49988437 -0.037612581 0.31936744 0.61618064 0.74958163 0.87424134 1.0046299 0.89485371 0.98149708 0.89402279 0.69172868 0.6479818 0.58824562 0.66833144 0.66425224 0.52641713 0.54798041 0.62124967 0.56069211 0.49561756 0.48645276 0.64269558 0.51214309 0.39921706 0.50185492
-0.73149665 -0.67576141 -0.92615471 -0.94312642 -0.99803908 -1.0254685 -1.1094104999999999 -1.2707568999999999 -1.1801883999999998 -1.4132684 -1.5289883999999998 -1.4711502 -1.6987964 -1.6617326000000001 -1.7457081 -1.9472569 -1.9375064999999998 -2.0973895000000002 -2.0953513 -1.8553921999999998 -1.8460876 -1.7779234 -1.202581 -0.75234162 -0.49988437 -0.037612581 0.31936744 0.61618064 0.74958163 0.87424134 1.0046299 0.89485371 0.98149708 0.89402279 0.69172868 0.6479818 0.58824562 0.66833144 0.66425224 0.52641713 0.54798041 0.62124967 0.56069211 0.49561756 0.48645276 0.64269558 0.51214309 0.39921706 0.50185492 0.44900105
-0.67576141 -0.92615471 -0.94312642 -0.99803908 -1.0254685 -1.1094104999999999 -1.2707568999999999 -1.1801883999999998 -1.4132684 -1.5289883999999998 -1.4711502 -1.6987964 -1.6617326000000001 -1.7457081 -1.9472569 -1.9375064999999998 -2.0973895000000002 -2.0953513 -1.8553921999999998 -1.8460876 -1.7779234 -1.202581 -0.75234162 -0.49988437 -0.037612581 0.31936744 0.61618064 0.74958163 0.87424134 1.0046299 0.89485371 0.98149708 0.89402279 0.69172868 0.6479818 0.58824562 0.66833144 0.66425224 0.52641713 0.54798041 0.62124967 0.56069211 0.49561756 0.48645276 0.64269558 0.51214309 0.39921706 0.50185492 0.44900105 0.35882129999999995
-0.92615471 -0.94312642 -0.99803908 -1.0254685 -1.1094104999999999 -1.2707568999999999 -1.1801883999999998 -1.4132684 -1.5289883999999998 -1.4711502 -1.6987964 -1.6617326000000001 -1.7457081 -1.9472569 -1.9375064999999998 -2.0973895000000002 -2.0953513 -1.8553921999999998 -1.8460876 -1.7779234 -1.202581 -0.75234162 -0.49988437 -0.037612581 0.31936744 0.61618064 0.74958163 0.87424134 1.0046299 0.89485371 0.98149708 0.89402279 0.69172868 0.6479818 0.58824562 0.66833144 0.66425224 0.52641713 0.54798041 0.62124967 0.56069211 0.49561756 0.48645276 0.64269558 0.51214309 0.39921706 0.50185492 0.44900105 0.35882129999999995 0.36320459
-0.94312642 -0.99803908 -1.0254685 -1.1094104999999999 -1.2707568999999999 -1.1801883999999998 -1.4132684 -1.5289883999999998 -1.4711502 -1.6987964 -1.6617326000000001 -1.7457081 -1.9472569 -1.9375064999999998 -2.0973895000000002 -2.0953513 -1.8553921999999998 -1.8460876 -1.7779234 -1.202581 -0.75234162 -0.49988437 -0.037612581 0.31936744 0.61618064 0.74958163 0.87424134 1.0046299 0.89485371 0.98149708 0.89402279 0.69172868 0.6479818 0.58824562 0.66833144 0.66425224 0.52641713 0.54798041 0.62124967 0.56069211 0.49561756 0.48645276 0.64269558 0.51214309 0.39921706 0.50185492 0.44900105 0.35882129999999995 0.36320459 0.36163423
-0.99803908 -1.0254685 -1.1094104999999999 -1.2707568999999999 -1.1801883999999998 -1.4132684 -1.5289883999999998 -1.4711502 -1.6987964 -1.6617326000000001 -1.7457081 -1.9472569 -1.9375064999999998 -2.0973895000000002 -2.0953513 -1.8553921999999998 -1.8460876 -1.7779234 -1.202581 -0.75234162 -0.49988437 -0.037612581 0.31936744 0.61618064 0.74958163 0.87424134 1.0046299 0.89485371 0.98149708 0.89402279 0.69172868 0.6479818 0.58824562 0.66833144 0.66425224 0.52641713 0.54798041 0.62124967 0.56069211 0.49561756 0.48645276 0.64269558 0.51214309 0.39921706 0.50185492 0.44900105 0.35882129999999995 0.36320459 0.36163423 0.20057977
-1.0254685 -1.1094104999999999 -1.2707568999999999 -1.1801883999999998 -1.4132684 -1.5289883999999998 -1.4711502 -1.6987964 -1.6617326000000001 -1.7457081 -1.9472569 -1.9375064999999998 -2.0973895000000002 -2.0953513 -1.8553921999999998 -1.8460876 -1.7779234 -1.202581 -0.75234162 -0.49988437 -0.037612581 0.31936744 0.61618064 0.74958163 0.87424134 1.0046299 0.89485371 0.98149708 0.89402279 0.69172868 0.6479818 0.58824562 0.66833144 0.66425224 0.52641713 0.54798041 0.62124967 0.56069211 0.49561756 0.48645276 0.64269558 0.51214309 0.39921706 0.50185492 0.44900105 0.35882129999999995 0.36320459 0.36163423 0.20057977 0.2566303
-1.1094104999999999 -1.2707568999999999 -1.1801883999999998 -1.4132684 -1.5289883999999998 -1.4711502 -1.6987964 -1.6617326000000001 -1.7457081 -1.9472569 -1.9375064999999998 -2.0973895000000002 -2.0953513 -1.8553921999999998 -1.8460876 -1.7779234 -1.202581 -0.75234162 -0.49988437 -0.037612581 0.31936744 0.61618064 0.74958163 0.87424134 1.0046299 0.89485371 0.98149708 0.89402279 0.69172868 0.6479818 0.58824562 0.66833144 0.66425224 0.52641713 0.54798041 0.62124967 0.56069211 0.49561756 0.48645276 0.64269558 0.51214309 0.39921706 0.50185492 0.44900105 0.35882129999999995 0.36320459 0.36163423 0.20057977 0.2566303 0.35495588
-1.2707568999999999 -1.1801883999999998 -1.4132684 -1.5289883999999998 -1.4711502 -1.6987964 -1.6617326000000001 -1.7457081 -1.9472569 -1.9375064999999998 -2.0973895000000002 -2.0953513 -1.8553921999999998 -1.8460876 -1.7779234 -1.202581 -0.75234162 -0.49988437 -0.037612581 0.31936744 0.61618064 0.74958163 0.87424134 1.0046299 0.89485371 0.98149708 0.89402279 0.69172868 0.6479818 0.58824562 0.66833144 0.66425224 0.52641713 0.54798041 0.62124967 0.56069211 0.49561756 0.48645276 0.64269558 0.51214309 0.39921706 0.50185492 0.44900105 0.35882129999999995 0.36320459 0.36163423 0.20057977 0.2566303 0.35495588 0.16341288
-1.1801883999999998 -1.4132684 -1.5289883999999998 -1.4711502 -1.6987964 -1.6617326000000001 -1.7457081 -1.9472569 -1.9375064999999998 -2.0973895000000002 -2.0953513 -1.8553921999999998 -1.8460876 -1.7779234 -1.202581 -0.75234162 -0.49988437 -0.037612581 0.31936744 0.61618064 0.74958163 0.87424134 1.0046299 0.89485371 0.98149708 0.89402279 0.69172868 0.6479818 0.58824562 0.66833144 0.66425224 0.52641713 0.54798041 0.62124967 0.56069211 0.49561756 0.48645276 0.64269558 0.51214309 0.39921706 0.50185492 0.44900105 0.35882129999999995 0.36320459 0.36163423 0.20057977 0.2566303 0.35495588 0.16341288 0.22643823
-1.4132684 -1.5289883999999998 -1.4711502 -1.6987964 -1.6617326000000001 -1.7457081 -1.9472569 -1.9375064999999998 -2.0973895000000002 -2.0953513 -1.8553921999999998 -1.8460876 -1.7779234 -1.202581 -0.75234162 -0.49988437 -0.037612581 0.31936744 0.61618064 0.74958163 0.87424134 1.0046299 0.89485371 0.98149708 0.89402279 0.69172868 0.6479818 0.58824562 0.66833144 0.66425224 0.52641713 0.54798041 0.62124967 0.56069211 0.49561756 0.48645276 0.64269558 0.51214309 0.39921706 0.50185492 0.44900105 0.35882129999999995 0.36320459 0.36163423 0.20057977 0.2566303 0.35495588 0.16341288 0.22643823 0.1421098
-1.5289883999999998 -1.4711502 -1.6987964 -1.6617326000000001 -1.7457081 -1.9472569 -1.9375064999999998 -2.0973895000000002 -2.0953513 -1.8553921999999998 -1.8460876 -1.7779234 -1.202581 -0.75234162 -0.49988437 -0.037612581 0.31936744 0.61618064 0.74958163 0.87424134 1.0046299 0.89485371 0.98149708 0.89402279 0.69172868 0.6479818 0.58824562 0.66833144 0.66425224 0.52641713 0.54798041 0.62124967 0.56069211 0.49561756 0.48645276 0.64269558 0.51214309 0.39921706 0.50185492 0.44900105 0.35882129999999995 0.36320459 0.36163423 0.20057977 0.2566303 0.35495588 0.16341288 0.22643823 0.1421098 0.051816255
-1.4711502 -1.6987964 -1.6617326000000001 -1.7457081 -1.9472569 -1.9375064999999998 -2.0973895000000002 -2.0953513 -1.8553921999999998 -1.8460876 -1.7779234 -1.202581 -0.75234162 -0.49988437 -0.037612581 0.31936744 0.61618064 0.74958163 0.87424134 1.0046299 0.89485371 0.98149708 0.89402279 0.69172868 0.6479818 0.58824562 0.66833144 0.66425224 0.52641713 0.54798041 0.62124967 0.56069211 0.49561756 0.48645276 0.64269558 0.51214309 0.39921706 0.50185492 0.44900105 0.35882129999999995 0.36320459 0.36163423 0.20057977 0.2566303 0.35495588 0.16341288 0.22643823 0.1421098 0.051816255 0.33930872
-1.6987964 -1.6617326000000001 -1.7457081 -1.9472569 -1.9375064999999998 -2.0973895000000002 -2.0953513 -1.8553921999999998 -1.8460876 -1.7779234 -1.202581 -0.75234162 -0.49988437 -0.037612581 0.31936744 0.61618064 0.74958163 0.87424134 1.0046299 0.89485371 0.98149708 0.89402279 0.69172868 0.6479818 0.58824562 0.66833144 0.66425224 0.52641713 0.54798041 0.62124967 0.56069211 0.49561756 0.48645276 0.64269558 0.51214309 0.39921706 0.50185492 0.44900105 0.35882129999999995 0.36320459 0.36163423 0.20057977 0.2566303 0.35495588 0.16341288 0.22643823 0.1421098 0.051816255 0.33930872 0.24507334
-1.6617326000000001 -1.7457081 -1.9472569 -1.9375064999999998 -2.0973895000000002 -2.0953513 -1.8553921999999998 -1.8460876 -1.7779234 -1.202581 -0.75234162 -0.49988437 -0.037612581 0.31936744 0.61618064 0.74958163 0.87424134 1.0046299 0.89485371 0.98149708 0.89402279 0.69172868 0.6479818 0.58824562 0.66833144 0.66425224 0.52641713 0.54798041 0.62124967 0.56069211 0.49561756 0.48645276 0.64269558 0.51214309 0.39921706 0.50185492 0.44900105 0.35882129999999995 0.36320459 0.36163423 0.20057977 0.2566303 0.35495588 0.16341288 0.22643823 0.1421098 0.051816255 0.33930872 0.24507334 0.53702864
-1.7457081 -1.9472569 -1.9375064999999998 -2.0973895000000002 -2.0953513 -1.8553921999999998 -1.8460876 -1.7779234 -1.202581 -0.75234162 -0.49988437 -0.037612581 0.31936744 0.61618064 0.74958163 0.87424134 1.0046299 0.89485371 0.98149708 0.89402279 0.69172868 0.6479818 0.58824562 0.66833144 0.66425224 0.52641713 0.54798041 0.62124967 0.56069211 0.49561756 0.48645276 0.64269558 0.51214309 0.39921706 0.50185492 0.44900105 0.35882129999999995 0.36320459 0.36163423 0.20057977 0.2566303 0.35495588 0.16341288 0.22643823 0.1421098 0.051816255 0.33930872 0.24507334 0.53702864 0.80713103
-1.9472569 -1.9375064999999998 -2.0973895000000002 -2.0953513 -1.8553921999999998 -1.8460876 -1.7779234 -1.202581 -0.75234162 -0.49988437 -0.037612581 0.31936744 0.61618064 0.74958163 0.87424134 1.0046299 0.89485371 0.98149708 0.89402279 0.69172868 0.6479818 0.58824562 0.66833144 0.66425224 0.52641713 0.54798041 0.62124967 0.56069211 0.49561756 0.48645276 0.64269558 0.51214309 0.39921706 0.50185492 0.44900105 0.35882129999999995 0.36320459 0.36163423 0.20057977 0.2566303 0.35495588 0.16341288 0.22643823 0.1421098 0.051816255 0.33930872 0.24507334 0.53702864 0.80713103 0.63696255
-1.9375064999999998 -2.0973895000000002 -2.0953513 -1.8553921999999998 -1.8460876 -1.7779234 -1.202581 -0.75234162 -0.49988437 -0.037612581 0.31936744 0.61618064 0.74958163 0.87424134 1.0046299 0.89485371 0.98149708 0.89402279 0.69172868 0.6479818 0.58824562 0.66833144 0.66425224 0.52641713 0.54798041 0.62124967 0.56069211 0.49561756 0.48645276 0.64269558 0.51214309 0.39921706 0.50185492 0.44900105 0.35882129999999995 0.36320459 0.36163423 0.20057977 0.2566303 0.35495588 0.16341288 0.22643823 0.1421098 0.051816255 0.33930872 0.24507334 0.53702864 0.80713103 0.63696255 0.54241627
-2.0973895000000002 -2.0953513 -1.8553921999999998 -1.8460876 -1.7779234 -1.202581 -0.75234162 -0.49988437 -0.037612581 0.31936744 0.61618064 0.74958163 0.87424134 1.0046299 0.89485371 0.98149708 0.89402279 0.69172868 0.6479818 0.58824562 0.66833144 0.66425224 0.52641713 0.54798041 0.62124967 0.56069211 0.49561756 0.48645276 0.64269558 0.51214309 0.39921706 0.50185492 0.44900105 0.35882129999999995 0.36320459 0.36163423 0.20057977 0.2566303 0.35495588 0.16341288 0.22643823 0.1421098 0.051816255 0.33930872 0.24507334 0.53702864 0.80713103 0.63696255 0.54241627 0.36355807
-2.0953513 -1.8553921999999998 -1.8460876 -1.7779234 -1.202581 -0.75234162 -0.49988437 -0.037612581 0.31936744 0.61618064 0.74958163 0.87424134 1.0046299 0.89485371 0.98149708 0.89402279 0.69172868 0.6479818 0.58824562 0.66833144 0.66425224 0.52641713 0.54798041 0.62124967 0.56069211 0.49561756 0.48645276 0.64269558 0.51214309 0.39921706 0.50185492 0.44900105 0.35882129999999995 0.36320459 0.36163423 0.20057977 0.2566303 0.35495588 0.16341288 0.22643823 0.1421098 0.051816255 0.33930872 0.24507334 0.53702864 0.80713103 0.63696255 0.54241627 0.36355807 0.38020759
-1.8553921999999998 -1.8460876 -1.7779234 -1.202581 -0.75234162 -0.49988437 -0.037612581 0.31936744 0.61618064 0.74958163 0.87424134 1.0046299 0.89485371 0.98149708 0.89402279 0.69172868 0.6479818 0.58824562 0.66833144 0.66425224 0.52641713 0.54798041 0.62124967 0.56069211 0.49561756 0.48645276 0.64269558 0.51214309 0.39921706 0.50185492 0.44900105 0.35882129999999995 0.36320459 0.36163423 0.20057977 0.2566303 0.35495588 0.16341288 0.22643823 0.1421098 0.051816255 0.33930872 0.24507334 0.53702864 0.80713103 0.63696255 0.54241627 0.36355807 0.38020759 0.09090529800000001
-1.8460876 -1.7779234 -1.202581 -0.75234162 -0.49988437 -0.037612581 0.31936744 0.61618064 0.74958163 0.87424134 1.0046299 0.89485371 0.98149708 0.89402279 0.69172868 0.6479818 0.58824562 0.66833144 0.66425224 0.52641713 0.54798041 0.62124967 0.56069211 0.49561756 0.48645276 0.64269558 0.51214309 0.39921706 0.50185492 0.44900105 0.35882129999999995 0.36320459 0.36163423 0.20057977 0.2566303 0.35495588 0.16341288 0.22643823 0.1421098 0.051816255 0.33930872 0.24507334 0.53702864 0.80713103 0.63696255 0.54241627 0.36355807 0.38020759 0.09090529800000001 -0.060212628
-1.7779234 -1.202581 -0.75234162 -0.49988437 -0.037612581 0.31936744 0.61618064 0.74958163 0.87424134 1.0046299 0.89485371 0.98149708 0.89402279 0.69172868 0.6479818 0.58824562 0.66833144 0.66425224 0.52641713 0.54798041 0.62124967 0.56069211 0.49561756 0.48645276 0.64269558 0.51214309 0.39921706 0.50185492 0.44900105 0.35882129999999995 0.36320459 0.36163423 0.20057977 0.2566303 0.35495588 0.16341288 0.22643823 0.1421098 0.051816255 0.33930872 0.24507334 0.53702864 0.80713103 0.63696255 0.54241627 0.36355807 0.38020759 0.09090529800000001 -0.060212628 0.066960257
-1.202581 -0.75234162 -0.49988437 -0.037612581 0.31936744 0.61618064 0.74958163 0.87424134 1.0046299 0.89485371 0.98149708 0.89402279 0.69172868 0.6479818 0.58824562 0.66833144 0.66425224 0.52641713 0.54798041 0.62124967 0.56069211 0.49561756 0.48645276 0.64269558 0.51214309 0.39921706 0.50185492 0.44900105 0.35882129999999995 0.36320459 0.36163423 0.20057977 0.2566303 0.35495588 0.16341288 0.22643823 0.1421098 0.051816255 0.33930872 0.24507334 0.53702864 0.80713103 0.63696255 0.54241627 0.36355807 0.38020759 0.09090529800000001 -0.060212628 0.066960257 -0.15598224
-0.75234162 -0.49988437 -0.037612581 0.31936744 0.61618064 0.74958163 0.87424134 1.0046299 0.89485371 0.98149708 0.89402279 0.69172868 0.6479818 0.58824562 0.66833144 0.66425224 0.52641713 0.54798041 0.62124967 0.56069211 0.49561756 0.48645276 0.64269558 0.51214309 0.39921706 0.50185492 0.44900105 0.35882129999999995 0.36320459 0.36163423 0.20057977 0.2566303 0.35495588 0.16341288 0.22643823 0.1421098 0.051816255 0.33930872 0.24507334 0.53702864 0.80713103 0.63696255 0.54241627 0.36355807 0.38020759 0.09090529800000001 -0.060212628 0.066960257 -0.15598224 -0.20973822
-0.49988437 -0.037612581 0.31936744 0.61618064 0.74958163 0.87424134 1.0046299 0.89485371 0.98149708 0.89402279 0.69172868 0.6479818 0.58824562 0.66833144 0.66425224 0.52641713 0.54798041 0.62124967 0.56069211 0.49561756 0.48645276 0.64269558 0.51214309 0.39921706 0.50185492 0.44900105 0.35882129999999995 0.36320459 0.36163423 0.20057977 0.2566303 0.35495588 0.16341288 0.22643823 0.1421098 0.051816255 0.33930872 0.24507334 0.53702864 0.80713103 0.63696255 0.54241627 0.36355807 0.38020759 0.09090529800000001 -0.060212628 0.066960257 -0.15598224 -0.20973822 -0.026553855
-0.037612581 0.31936744 0.61618064 0.74958163 0.87424134 1.0046299 0.89485371 0.98149708 0.89402279 0.69172868 0.6479818 0.58824562 0.66833144 0.66425224 0.52641713 0.54798041 0.62124967 0.56069211 0.49561756 0.48645276 0.64269558 0.51214309 0.39921706 0.50185492 0.44900105 0.35882129999999995 0.36320459 0.36163423 0.20057977 0.2566303 0.35495588 0.16341288 0.22643823 0.1421098 0.051816255 0.33930872 0.24507334 0.53702864 0.80713103 0.63696255 0.54241627 0.36355807 0.38020759 0.09090529800000001 -0.060212628 0.066960257 -0.15598224 -0.20973822 -0.026553855 -0.22865049
0.31936744 0.61618064 0.74958163 0.87424134 1.0046299 0.89485371 0.98149708 0.89402279 0.69172868 0.6479818 0.58824562 0.66833144 0.66425224 0.52641713 0.54798041 0.62124967 0.56069211 0.49561756 0.48645276 0.64269558 0.51214309 0.39921706 0.50185492 0.44900105 0.35882129999999995 0.36320459 0.36163423 0.20057977 0.2566303 0.35495588 0.16341288 0.22643823 0.1421098 0.051816255 0.33930872 0.24507334 0.53702864 0.80713103 0.63696255 0.54241627 0.36355807 0.38020759 0.09090529800000001 -0.060212628 0.066960257 -0.15598224 -0.20973822 -0.026553855 -0.22865049 -0.26106331
0.61618064 0.74958163 0.87424134 1.0046299 0.89485371 0.98149708 0.89402279 0.69172868 0.6479818 0.58824562 0.66833144 0.66425224 0.52641713 0.54798041 0.62124967 0.56069211 0.49561756 0.48645276 0.64269558 0.51214309 0.39921706 0.50185492 0.44900105 0.35882129999999995 0.36320459 0.36163423 0.20057977 0.2566303 0.35495588 0.16341288 0.22643823 0.1421098 0.051816255 0.33930872 0.24507334 0.53702864 0.80713103 0.63696255 0.54241627 0.36355807 0.38020759 0.09090529800000001 -0.060212628 0.066960257 -0.15598224 -0.20973822 -0.026553855 -0.22865049 -0.26106331 -0.16065510000000002
0.74958163 0.87424134 1.0046299 0.89485371 0.98149708 0.89402279 0.69172868 0.6479818 0.58824562 0.66833144 0.66425224 0.52641713 0.54798041 0.62124967 0.56069211 0.49561756 0.48645276 0.64269558 0.51214309 0.39921706 0.50185492 0.44900105 0.35882129999999995 0.36320459 0.36163423 0.20057977 0.2566303 0.35495588 0.16341288 0.22643823 0.1421098 0.051816255 0.33930872 0.24507334 0.53702864 0.80713103 0.63696255 0.54241627 0.36355807 0.38020759 0.09090529800000001 -0.060212628 0.066960257 -0.15598224 -0.20973822 -0.026553855 -0.22865049 -0.26106331 -0.16065510000000002 -0.10491354
0.87424134 1.0046299 0.89485371 0.98149708 0.89402279 0.69172868 0.6479818 0.58824562 0.66833144 0.66425224 0.52641713 0.54798041 0.62124967 0.56069211 0.49561756 0.48645276 0.64269558 0.51214309 0.39921706 0.50185492 0.44900105 0.35882129999999995 0.36320459 0.36163423 0.20057977 0.2566303 0.35495588 0.16341288 0.22643823 0.1421098 0.051816255 0.33930872 0.24507334 0.53702864 0.80713103 0.63696255 0.54241627 0.36355807 0.38020759 0.09090529800000001 -0.060212628 0.066960257 -0.15598224 -0.20973822 -0.026553855 -0.22865049 -0.26106331 -0.16065510000000002 -0.10491354 -0.161476
1.0046299 0.89485371 0.98149708 0.89402279 0.69172868 0.6479818 0.58824562 0.66833144 0.66425224 0.52641713 0.54798041 0.62124967 0.56069211 0.49561756 0.48645276 0.64269558 0.51214309 0.39921706 0.50185492 0.44900105 0.35882129999999995 0.36320459 0.36163423 0.20057977 0.2566303 0.35495588 0.16341288 0.22643823 0.1421098 0.051816255 0.33930872 0.24507334 0.53702864 0.80713103 0.63696255 0.54241627 0.36355807 0.38020759 0.09090529800000001 -0.060212628 0.066960257 -0.15598224 -0.20973822 -0.026553855 -0.22865049 -0.26106331 -0.16065510000000002 -0.10491354 -0.161476 -0.20260718
0.89485371 0.98149708 0.89402279 0.69172868 0.6479818 0.58824562 0.66833144 0.66425224 0.52641713 0.54798041 0.62124967 0.56069211 0.49561756 0.48645276 0.64269558 0.51214309 0.39921706 0.50185492 0.44900105 0.35882129999999995 0.36320459 0.36163423 0.20057977 0.2566303 0.35495588 0.16341288 0.22643823 0.1421098 0.051816255 0.33930872 0.24507334 0.53702864 0.80713103 0.63696255 0.54241627 0.36355807 0.38020759 0.09090529800000001 -0.060212628 0.066960257 -0.15598224 -0.20973822 -0.026553855 -0.22865049 -0.26106331 -0.16065510000000002 -0.10491354 -0.161476 -0.20260718 -0.12651805
0.98149708 0.89402279 0.69172868 0.6479818 0.58824562 0.66833144 0.66425224 0.52641713 0.54798041 0.62124967 0.56069211 0.49561756 0.48645276 0.64269558 0.51214309 0.39921706 0.50185492 0.44900105 0.35882129999999995 0.36320459 0.36163423 0.20057977 0.2566303 0.35495588 0.16341288 0.22643823 0.1421098 0.051816255 0.33930872 0.24507334 0.53702864 0.80713103 0.63696255 0.54241627 0.36355807 0.38020759 0.09090529800000001 -0.060212628 0.066960257 -0.15598224 -0.20973822 -0.026553855 -0.22865049 -0.26106331 -0.16065510000000002 -0.10491354 -0.161476 -0.20260718 -0.12651805 -0.11709868
0.89402279 0.69172868 0.6479818 0.58824562 0.66833144 0.66425224 0.52641713 0.54798041 0.62124967 0.56069211 0.49561756 0.48645276 0.64269558 0.51214309 0.39921706 0.50185492 0.44900105 0.35882129999999995 0.36320459 0.36163423 0.20057977 0.2566303 0.35495588 0.16341288 0.22643823 0.1421098 0.051816255 0.33930872 0.24507334 0.53702864 0.80713103 0.63696255 0.54241627 0.36355807 0.38020759 0.09090529800000001 -0.060212628 0.066960257 -0.15598224 -0.20973822 -0.026553855 -0.22865049 -0.26106331 -0.16065510000000002 -0.10491354 -0.161476 -0.20260718 -0.12651805 -0.11709868 0.05895187
