0.59401433 1.1537236000000002 2.6051702000000003 3.1965895 2.0619099 0.1933088 -0.39215695 0.77476198 0.74411737 0.52828631 0.60695632 0.075758462 -0.16262867 -0.75770482 -0.82668801 -0.90466799 -0.86489703 -0.92723404 -1.0822416000000001 -1.0179055000000001 -1.0156870999999998 -1.2161342 -1.3557417999999999 -1.3605295 -1.5026603 -1.6789171000000003 -1.7439553 -1.8176574 -1.9648343999999998 -1.9914343 -2.1455117 -2.0926588 -1.8876263999999998 -1.9263238999999999 -1.7072349999999998 -1.4208117 -1.2455294 -0.88839617 -0.47775790000000007 -0.099044326 0.18898706 0.4565955 0.68388928 0.90009814 0.94101132 0.94947477 0.99893277 0.94897463 0.82744347 0.78173448
1.1537236000000002 2.6051702000000003 3.1965895 2.0619099 0.1933088 -0.39215695 0.77476198 0.74411737 0.52828631 0.60695632 0.075758462 -0.16262867 -0.75770482 -0.82668801 -0.90466799 -0.86489703 -0.92723404 -1.0822416000000001 -1.0179055000000001 -1.0156870999999998 -1.2161342 -1.3557417999999999 -1.3605295 -1.5026603 -1.6789171000000003 -1.7439553 -1.8176574 -1.9648343999999998 -1.9914343 -2.1455117 -2.0926588 -1.8876263999999998 -1.9263238999999999 -1.7072349999999998 -1.4208117 -1.2455294 -0.88839617 -0.47775790000000007 -0.099044326 0.18898706 0.4565955 0.68388928 0.90009814 0.94101132 0.94947477 0.99893277 0.94897463 0.82744347 0.78173448 0.71188769
2.6051702000000003 3.1965895 2.0619099 0.1933088 -0.39215695 0.77476198 0.74411737 0.52828631 0.60695632 0.075758462 -0.16262867 -0.75770482 -0.82668801 -0.90466799 -0.86489703 -0.92723404 -1.0822416000000001 -1.0179055000000001 -1.0156870999999998 -1.2161342 -1.3557417999999999 -1.3605295 -1.5026603 -1.6789171000000003 -1.7439553 -1.8176574 -1.9648343999999998 -1.9914343 -2.1455117 -2.0926588 -1.8876263999999998 -1.9263238999999999 -1.7072349999999998 -1.4208117 -1.2455294 -0.88839617 -0.47775790000000007 -0.099044326 0.18898706 0.4565955 0.68388928 0.90009814 0.94101132 0.94947477 0.99893277 0.94897463 0.82744347 0.78173448 0.71188769 0.64823767
3.1965895 2.0619099 0.1933088 -0.39215695 0.77476198 0.74411737 0.52828631 0.60695632 0.075758462 -0.16262867 -0.75770482 -0.82668801 -0.90466799 -0.86489703 -0.92723404 -1.0822416000000001 -1.0179055000000001 -1.0156870999999998 -1.2161342 -1.3557417999999999 -1.3605295 -1.5026603 -1.6789171000000003 -1.7439553 -1.8176574 -1.9648343999999998 -1.9914343 -2.1455117 -2.0926588 -1.8876263999999998 -1.9263238999999999 -1.7072349999999998 -1.4208117 -1.2455294 -0.88839617 -0.47775790000000007 -0.099044326 0.18898706 0.4565955 0.68388928 0.90009814 0.94101132 0.94947477 0.99893277 0.94897463 0.82744347 0.78173448 0.71188769 0.64823767 0.69262451
2.0619099 0.1933088 -0.39215695 0.77476198 0.74411737 0.52828631 0.60695632 0.075758462 -0.16262867 -0.75770482 -0.82668801 -0.90466799 -0.86489703 -0.92723404 -1.0822416000000001 -1.0179055000000001 -1.0156870999999998 -1.2161342 -1.3557417999999999 -1.3605295 -1.5026603 -1.6789171000000003 -1.7439553 -1.8176574 -1.9648343999999998 -1.9914343 -2.1455117 -2.0926588 -1.8876263999999998 -1.9263238999999999 -1.7072349999999998 -1.4208117 -1.2455294 -0.88839617 -0.47775790000000007 -0.099044326 0.18898706 0.4565955 0.68388928 0.90009814 0.94101132 0.94947477 0.99893277 0.94897463 0.82744347 0.78173448 0.71188769 0.64823767 0.69262451 0.56480838
0.1933088 -0.39215695 0.77476198 0.74411737 0.52828631 0.60695632 0.075758462 -0.16262867 -0.75770482 -0.82668801 -0.90466799 -0.86489703 -0.92723404 -1.0822416000000001 -1.0179055000000001 -1.0156870999999998 -1.2161342 -1.3557417999999999 -1.3605295 -1.5026603 -1.6789171000000003 -1.7439553 -1.8176574 -1.9648343999999998 -1.9914343 -2.1455117 -2.0926588 -1.8876263999999998 -1.9263238999999999 -1.7072349999999998 -1.4208117 -1.2455294 -0.88839617 -0.47775790000000007 -0.099044326 0.18898706 0.4565955 0.68388928 0.90009814 0.94101132 0.94947477 0.99893277 0.94897463 0.82744347 0.78173448 0.71188769 0.64823767 0.69262451 0.56480838 0.49460019
-0.39215695 0.77476198 0.74411737 0.52828631 0.60695632 0.075758462 -0.16262867 -0.75770482 -0.82668801 -0.90466799 -0.86489703 -0.92723404 -1.0822416000000001 -1.0179055000000001 -1.0156870999999998 -1.2161342 -1.3557417999999999 -1.3605295 -1.5026603 -1.6789171000000003 -1.7439553 -1.8176574 -1.9648343999999998 -1.9914343 -2.1455117 -2.0926588 -1.8876263999999998 -1.9263238999999999 -1.7072349999999998 -1.4208117 -1.2455294 -0.88839617 -0.47775790000000007 -0.099044326 0.18898706 0.4565955 0.68388928 0.90009814 0.94101132 0.94947477 0.99893277 0.94897463 0.82744347 0.78173448 0.71188769 0.64823767 0.69262451 0.56480838 0.49460019 0.65125956
0.77476198 0.74411737 0.52828631 0.60695632 0.075758462 -0.16262867 -0.75770482 -0.82668801 -0.90466799 -0.86489703 -0.92723404 -1.0822416000000001 -1.0179055000000001 -1.0156870999999998 -1.2161342 -1.3557417999999999 -1.3605295 -1.5026603 -1.6789171000000003 -1.7439553 -1.8176574 -1.9648343999999998 -1.9914343 -2.1455117 -2.0926588 -1.8876263999999998 -1.9263238999999999 -1.7072349999999998 -1.4208117 -1.2455294 -0.88839617 -0.47775790000000007 -0.099044326 0.18898706 0.4565955 0.68388928 0.90009814 0.94101132 0.94947477 0.99893277 0.94897463 0.82744347 0.78173448 0.71188769 0.64823767 0.69262451 0.56480838 0.49460019 0.65125956 0.58689289
0.74411737 0.52828631 0.60695632 0.075758462 -0.16262867 -0.75770482 -0.82668801 -0.90466799 -0.86489703 -0.92723404 -1.0822416000000001 -1.0179055000000001 -1.0156870999999998 -1.2161342 -1.3557417999999999 -1.3605295 -1.5026603 -1.6789171000000003 -1.7439553 -1.8176574 -1.9648343999999998 -1.9914343 -2.1455117 -2.0926588 -1.8876263999999998 -1.9263238999999999 -1.7072349999999998 -1.4208117 -1.2455294 -0.88839617 -0.47775790000000007 -0.099044326 0.18898706 0.4565955 0.68388928 0.90009814 0.94101132 0.94947477 0.99893277 0.94897463 0.82744347 0.78173448 0.71188769 0.64823767 0.69262451 0.56480838 0.49460019 0.65125956 0.58689289 0.39271944
0.52828631 0.60695632 0.075758462 -0.16262867 -0.75770482 -0.82668801 -0.90466799 -0.86489703 -0.92723404 -1.0822416000000001 -1.0179055000000001 -1.0156870999999998 -1.2161342 -1.3557417999999999 -1.3605295 -1.5026603 -1.6789171000000003 -1.7439553 -1.8176574 -1.9648343999999998 -1.9914343 -2.1455117 -2.0926588 -1.8876263999999998 -1.9263238999999999 -1.7072349999999998 -1.4208117 -1.2455294 -0.88839617 -0.47775790000000007 -0.099044326 0.18898706 0.4565955 0.68388928 0.90009814 0.94101132 0.94947477 0.99893277 0.94897463 0.82744347 0.78173448 0.71188769 0.64823767 0.69262451 0.56480838 0.49460019 0.65125956 0.58689289 0.39271944 0.46809317
0.60695632 0.075758462 -0.16262867 -0.75770482 -0.82668801 -0.90466799 -0.86489703 -0.92723404 -1.0822416000000001 -1.0179055000000001 -1.0156870999999998 -1.2161342 -1.3557417999999999 -1.3605295 -1.5026603 -1.6789171000000003 -1.7439553 -1.8176574 -1.9648343999999998 -1.9914343 -2.1455117 -2.0926588 -1.8876263999999998 -1.9263238999999999 -1.7072349999999998 -1.4208117 -1.2455294 -0.88839617 -0.47775790000000007 -0.099044326 0.18898706 0.4565955 0.68388928 0.90009814 0.94101132 0.94947477 0.99893277 0.94897463 0.82744347 0.78173448 0.71188769 0.64823767 0.69262451 0.56480838 0.49460019 0.65125956 0.58689289 0.39271944 0.46809317 0.59618888
0.075758462 -0.16262867 -0.75770482 -0.82668801 -0.90466799 -0.86489703 -0.92723404 -1.0822416000000001 -1.0179055000000001 -1.0156870999999998 -1.2161342 -1.3557417999999999 -1.3605295 -1.5026603 -1.6789171000000003 -1.7439553 -1.8176574 -1.9648343999999998 -1.9914343 -2.1455117 -2.0926588 -1.8876263999999998 -1.9263238999999999 -1.7072349999999998 -1.4208117 -1.2455294 -0.88839617 -0.47775790000000007 -0.099044326 0.18898706 0.4565955 0.68388928 0.90009814 0.94101132 0.94947477 0.99893277 0.94897463 0.82744347 0.78173448 0.71188769 0.64823767 0.69262451 0.56480838 0.49460019 0.65125956 0.58689289 0.39271944 0.46809317 0.59618888 0.48342542
-0.16262867 -0.75770482 -0.82668801 -0.90466799 -0.86489703 -0.92723404 -1.0822416000000001 -1.0179055000000001 -1.0156870999999998 -1.2161342 -1.3557417999999999 -1.3605295 -1.5026603 -1.6789171000000003 -1.7439553 -1.8176574 -1.9648343999999998 -1.9914343 -2.1455117 -2.0926588 -1.8876263999999998 -1.9263238999999999 -1.7072349999999998 -1.4208117 -1.2455294 -0.88839617 -0.47775790000000007 -0.099044326 0.18898706 0.4565955 0.68388928 0.90009814 0.94101132 0.94947477 0.99893277 0.94897463 0.82744347 0.78173448 0.71188769 0.64823767 0.69262451 0.56480838 0.49460019 0.65125956 0.58689289 0.39271944 0.46809317 0.59618888 0.48342542 0.52306562
-0.75770482 -0.82668801 -0.90466799 -0.86489703 -0.92723404 -1.0822416000000001 -1.0179055000000001 -1.0156870999999998 -1.2161342 -1.3557417999999999 -1.3605295 -1.5026603 -1.6789171000000003 -1.7439553 -1.8176574 -1.9648343999999998 -1.9914343 -2.1455117 -2.0926588 -1.8876263999999998 -1.9263238999999999 -1.7072349999999998 -1.4208117 -1.2455294 -0.88839617 -0.47775790000000007 -0.099044326 0.18898706 0.4565955 0.68388928 0.90009814 0.94101132 0.94947477 0.99893277 0.94897463 0.82744347 0.78173448 0.71188769 0.64823767 0.69262451 0.56480838 0.49460019 0.65125956 0.58689289 0.39271944 0.46809317 0.59618888 0.48342542 0.52306562 0.5137537
-0.82668801 -0.90466799 -0.86489703 -0.92723404 -1.0822416000000001 -1.0179055000000001 -1.0156870999999998 -1.2161342 -1.3557417999999999 -1.3605295 -1.5026603 -1.6789171000000003 -1.7439553 -1.8176574 -1.9648343999999998 -1.9914343 -2.1455117 -2.0926588 -1.8876263999999998 -1.9263238999999999 -1.7072349999999998 -1.4208117 -1.2455294 -0.88839617 -0.47775790000000007 -0.099044326 0.18898706 0.4565955 0.68388928 0.90009814 0.94101132 0.94947477 0.99893277 0.94897463 0.82744347 0.78173448 0.71188769 0.64823767 0.69262451 0.56480838 0.49460019 0.65125956 0.58689289 0.39271944 0.46809317 0.59618888 0.48342542 0.52306562 0.5137537 0.43378089
-0.90466799 -0.86489703 -0.92723404 -1.0822416000000001 -1.0179055000000001 -1.0156870999999998 -1.2161342 -1.3557417999999999 -1.3605295 -1.5026603 -1.6789171000000003 -1.7439553 -1.8176574 -1.9648343999999998 -1.9914343 -2.1455117 -2.0926588 -1.8876263999999998 -1.9263238999999999 -1.7072349999999998 -1.4208117 -1.2455294 -0.88839617 -0.47775790000000007 -0.099044326 0.18898706 0.4565955 0.68388928 0.90009814 0.94101132 0.94947477 0.99893277 0.94897463 0.82744347 0.78173448 0.71188769 0.64823767 0.69262451 0.56480838 0.49460019 0.65125956 0.58689289 0.39271944 0.46809317 0.59618888 0.48342542 0.52306562 0.5137537 0.43378089 0.33661455
-0.86489703 -0.92723404 -1.0822416000000001 -1.0179055000000001 -1.0156870999999998 -1.2161342 -1.3557417999999999 -1.3605295 -1.5026603 -1.6789171000000003 -1.7439553 -1.8176574 -1.9648343999999998 -1.9914343 -2.1455117 -2.0926588 -1.8876263999999998 -1.9263238999999999 -1.7072349999999998 -1.4208117 -1.2455294 -0.88839617 -0.47775790000000007 -0.099044326 0.18898706 0.4565955 0.68388928 0.90009814 0.94101132 0.94947477 0.99893277 0.94897463 0.82744347 0.78173448 0.71188769 0.64823767 0.69262451 0.56480838 0.49460019 0.65125956 0.58689289 0.39271944 0.46809317 0.59618888 0.48342542 0.52306562 0.5137537 0.43378089 0.33661455 0.31448484
-0.92723404 -1.0822416000000001 -1.0179055000000001 -1.0156870999999998 -1.2161342 -1.3557417999999999 -1.3605295 -1.5026603 -1.6789171000000003 -1.7439553 -1.8176574 -1.9648343999999998 -1.9914343 -2.1455117 -2.0926588 -1.8876263999999998 -1.9263238999999999 -1.7072349999999998 -1.4208117 -1.2455294 -0.88839617 -0.47775790000000007 -0.099044326 0.18898706 0.4565955 0.68388928 0.90009814 0.94101132 0.94947477 0.99893277 0.94897463 0.82744347 0.78173448 0.71188769 0.64823767 0.69262451 0.56480838 0.49460019 0.65125956 0.58689289 0.39271944 0.46809317 0.59618888 0.48342542 0.52306562 0.5137537 0.43378089 0.33661455 0.31448484 0.41624216
-1.0822416000000001 -1.0179055000000001 -1.0156870999999998 -1.2161342 -1.3557417999999999 -1.3605295 -1.5026603 -1.6789171000000003 -1.7439553 -1.8176574 -1.9648343999999998 -1.9914343 -2.1455117 -2.0926588 -1.8876263999999998 -1.9263238999999999 -1.7072349999999998 -1.4208117 -1.2455294 -0.88839617 -0.47775790000000007 -0.099044326 0.18898706 0.4565955 0.68388928 0.90009814 0.94101132 0.94947477 0.99893277 0.94897463 0.82744347 0.78173448 0.71188769 0.64823767 0.69262451 0.56480838 0.49460019 0.65125956 0.58689289 0.39271944 0.46809317 0.59618888 0.48342542 0.52306562 0.5137537 0.43378089 0.33661455 0.31448484 0.41624216 0.27971827
-1.0179055000000001 -1.0156870999999998 -1.2161342 -1.3557417999999999 -1.3605295 -1.5026603 -1.6789171000000003 -1.7439553 -1.8176574 -1.9648343999999998 -1.9914343 -2.1455117 -2.0926588 -1.8876263999999998 -1.9263238999999999 -1.7072349999999998 -1.4208117 -1.2455294 -0.88839617 -0.47775790000000007 -0.099044326 0.18898706 0.4565955 0.68388928 0.90009814 0.94101132 0.94947477 0.99893277 0.94897463 0.82744347 0.78173448 0.71188769 0.64823767 0.69262451 0.56480838 0.49460019 0.65125956 0.58689289 0.39271944 0.46809317 0.59618888 0.48342542 0.52306562 0.5137537 0.43378089 0.33661455 0.31448484 0.41624216 0.27971827 0.21400447
-1.0156870999999998 -1.2161342 -1.3557417999999999 -1.3605295 -1.5026603 -1.6789171000000003 -1.7439553 -1.8176574 -1.9648343999999998 -1.9914343 -2.1455117 -2.0926588 -1.8876263999999998 -1.9263238999999999 -1.7072349999999998 -1.4208117 -1.2455294 -0.88839617 -0.47775790000000007 -0.099044326 0.18898706 0.4565955 0.68388928 0.90009814 0.94101132 0.94947477 0.99893277 0.94897463 0.82744347 0.78173448 0.71188769 0.64823767 0.69262451 0.56480838 0.49460019 0.65125956 0.58689289 0.39271944 0.46809317 0.59618888 0.48342542 0.52306562 0.5137537 0.43378089 0.33661455 0.31448484 0.41624216 0.27971827 0.21400447 0.26661842
-1.2161342 -1.3557417999999999 -1.3605295 -1.5026603 -1.6789171000000003 -1.7439553 -1.8176574 -1.9648343999999998 -1.9914343 -2.1455117 -2.0926588 -1.8876263999999998 -1.9263238999999999 -1.7072349999999998 -1.4208117 -1.2455294 -0.88839617 -0.47775790000000007 -0.099044326 0.18898706 0.4565955 0.68388928 0.90009814 0.94101132 0.94947477 0.99893277 0.94897463 0.82744347 0.78173448 0.71188769 0.64823767 0.69262451 0.56480838 0.49460019 0.65125956 0.58689289 0.39271944 0.46809317 0.59618888 0.48342542 0.52306562 0.5137537 0.43378089 0.33661455 0.31448484 0.41624216 0.27971827 0.21400447 0.26661842 0.43474294
-1.3557417999999999 -1.3605295 -1.5026603 -1.6789171000000003 -1.7439553 -1.8176574 -1.9648343999999998 -1.9914343 -2.1455117 -2.0926588 -1.8876263999999998 -1.9263238999999999 -1.7072349999999998 -1.4208117 -1.2455294 -0.88839617 -0.47775790000000007 -0.099044326 0.18898706 0.4565955 0.68388928 0.90009814 0.94101132 0.94947477 0.99893277 0.94897463 0.82744347 0.78173448 0.71188769 0.64823767 0.69262451 0.56480838 0.49460019 0.65125956 0.58689289 0.39271944 0.46809317 0.59618888 0.48342542 0.52306562 0.5137537 0.43378089 0.33661455 0.31448484 0.41624216 0.27971827 0.21400447 0.26661842 0.43474294 0.15539161
-1.3605295 -1.5026603 -1.6789171000000003 -1.7439553 -1.8176574 -1.9648343999999998 -1.9914343 -2.1455117 -2.0926588 -1.8876263999999998 -1.9263238999999999 -1.7072349999999998 -1.4208117 -1.2455294 -0.88839617 -0.47775790000000007 -0.099044326 0.18898706 0.4565955 0.68388928 0.90009814 0.94101132 0.94947477 0.99893277 0.94897463 0.82744347 0.78173448 0.71188769 0.64823767 0.69262451 0.56480838 0.49460019 0.65125956 0.58689289 0.39271944 0.46809317 0.59618888 0.48342542 0.52306562 0.5137537 0.43378089 0.33661455 0.31448484 0.41624216 0.27971827 0.21400447 0.26661842 0.43474294 0.15539161 0.21200508
-1.5026603 -1.6789171000000003 -1.7439553 -1.8176574 -1.9648343999999998 -1.9914343 -2.1455117 -2.0926588 -1.8876263999999998 -1.9263238999999999 -1.7072349999999998 -1.4208117 -1.2455294 -0.88839617 -0.47775790000000007 -0.099044326 0.18898706 0.4565955 0.68388928 0.90009814 0.94101132 0.94947477 0.99893277 0.94897463 0.82744347 0.78173448 0.71188769 0.64823767 0.69262451 0.56480838 0.49460019 0.65125956 0.58689289 0.39271944 0.46809317 0.59618888 0.48342542 0.52306562 0.5137537 0.43378089 0.33661455 0.31448484 0.41624216 0.27971827 0.21400447 0.26661842 0.43474294 0.15539161 0.21200508 0.61498033
-1.6789171000000003 -1.7439553 -1.8176574 -1.9648343999999998 -1.9914343 -2.1455117 -2.0926588 -1.8876263999999998 -1.9263238999999999 -1.7072349999999998 -1.4208117 -1.2455294 -0.88839617 -0.47775790000000007 -0.099044326 0.18898706 0.4565955 0.68388928 0.90009814 0.94101132 0.94947477 0.99893277 0.94897463 0.82744347 0.78173448 0.71188769 0.64823767 0.69262451 0.56480838 0.49460019 0.65125956 0.58689289 0.39271944 0.46809317 0.59618888 0.48342542 0.52306562 0.5137537 0.43378089 0.33661455 0.31448484 0.41624216 0.27971827 0.21400447 0.26661842 0.43474294 0.15539161 0.21200508 0.61498033 0.71676817
-1.7439553 -1.8176574 -1.9648343999999998 -1.9914343 -2.1455117 -2.0926588 -1.8876263999999998 -1.9263238999999999 -1.7072349999999998 -1.4208117 -1.2455294 -0.88839617 -0.47775790000000007 -0.099044326 0.18898706 0.4565955 0.68388928 0.90009814 0.94101132 0.94947477 0.99893277 0.94897463 0.82744347 0.78173448 0.71188769 0.64823767 0.69262451 0.56480838 0.49460019 0.65125956 0.58689289 0.39271944 0.46809317 0.59618888 0.48342542 0.52306562 0.5137537 0.43378089 0.33661455 0.31448484 0.41624216 0.27971827 0.21400447 0.26661842 0.43474294 0.15539161 0.21200508 0.61498033 0.71676817 0.87342363
-1.8176574 -1.9648343999999998 -1.9914343 -2.1455117 -2.0926588 -1.8876263999999998 -1.9263238999999999 -1.7072349999999998 -1.4208117 -1.2455294 -0.88839617 -0.47775790000000007 -0.099044326 0.18898706 0.4565955 0.68388928 0.90009814 0.94101132 0.94947477 0.99893277 0.94897463 0.82744347 0.78173448 0.71188769 0.64823767 0.69262451 0.56480838 0.49460019 0.65125956 0.58689289 0.39271944 0.46809317 0.59618888 0.48342542 0.52306562 0.5137537 0.43378089 0.33661455 0.31448484 0.41624216 0.27971827 0.21400447 0.26661842 0.43474294 0.15539161 0.21200508 0.61498033 0.71676817 0.87342363 0.75727531
-1.9648343999999998 -1.9914343 -2.1455117 -2.0926588 -1.8876263999999998 -1.9263238999999999 -1.7072349999999998 -1.4208117 -1.2455294 -0.88839617 -0.47775790000000007 -0.099044326 0.18898706 0.4565955 0.68388928 0.90009814 0.94101132 0.94947477 0.99893277 0.94897463 0.82744347 0.78173448 0.71188769 0.64823767 0.69262451 0.56480838 0.49460019 0.65125956 0.58689289 0.39271944 0.46809317 0.59618888 0.48342542 0.52306562 0.5137537 0.43378089 0.33661455 0.31448484 0.41624216 0.27971827 0.21400447 0.26661842 0.43474294 0.15539161 0.21200508 0.61498033 0.71676817 0.87342363 0.75727531 0.51954152
-1.9914343 -2.1455117 -2.0926588 -1.8876263999999998 -1.9263238999999999 -1.7072349999999998 -1.4208117 -1.2455294 -0.88839617 -0.47775790000000007 -0.099044326 0.18898706 0.4565955 0.68388928 0.90009814 0.94101132 0.94947477 0.99893277 0.94897463 0.82744347 0.78173448 0.71188769 0.64823767 0.69262451 0.56480838 0.49460019 0.65125956 0.58689289 0.39271944 0.46809317 0.59618888 0.48342542 0.52306562 0.5137537 0.43378089 0.33661455 0.31448484 0.41624216 0.27971827 0.21400447 0.26661842 0.43474294 0.15539161 0.21200508 0.61498033 0.71676817 0.87342363 0.75727531 0.51954152 0.54603085
-2.1455117 -2.0926588 -1.8876263999999998 -1.9263238999999999 -1.7072349999999998 -1.4208117 -1.2455294 -0.88839617 -0.47775790000000007 -0.099044326 0.18898706 0.4565955 0.68388928 0.90009814 0.94101132 0.94947477 0.99893277 0.94897463 0.82744347 0.78173448 0.71188769 0.64823767 0.69262451 0.56480838 0.49460019 0.65125956 0.58689289 0.39271944 0.46809317 0.59618888 0.48342542 0.52306562 0.5137537 0.43378089 0.33661455 0.31448484 0.41624216 0.27971827 0.21400447 0.26661842 0.43474294 0.15539161 0.21200508 0.61498033 0.71676817 0.87342363 0.75727531 0.51954152 0.54603085 0.35220095
-2.0926588 -1.8876263999999998 -1.9263238999999999 -1.7072349999999998 -1.4208117 -1.2455294 -0.88839617 -0.47775790000000007 -0.099044326 0.18898706 0.4565955 0.68388928 0.90009814 0.94101132 0.94947477 0.99893277 0.94897463 0.82744347 0.78173448 0.71188769 0.64823767 0.69262451 0.56480838 0.49460019 0.65125956 0.58689289 0.39271944 0.46809317 0.59618888 0.48342542 0.52306562 0.5137537 0.43378089 0.33661455 0.31448484 0.41624216 0.27971827 0.21400447 0.26661842 0.43474294 0.15539161 0.21200508 0.61498033 0.71676817 0.87342363 0.75727531 0.51954152 0.54603085 0.35220095 0.24965577
-1.8876263999999998 -1.9263238999999999 -1.7072349999999998 -1.4208117 -1.2455294 -0.88839617 -0.47775790000000007 -0.099044326 0.18898706 0.4565955 0.68388928 0.90009814 0.94101132 0.94947477 0.99893277 0.94897463 0.82744347 0.78173448 0.71188769 0.64823767 0.69262451 0.56480838 0.49460019 0.65125956 0.58689289 0.39271944 0.46809317 0.59618888 0.48342542 0.52306562 0.5137537 0.43378089 0.33661455 0.31448484 0.41624216 0.27971827 0.21400447 0.26661842 0.43474294 0.15539161 0.21200508 0.61498033 0.71676817 0.87342363 0.75727531 0.51954152 0.54603085 0.35220095 0.24965577 0.19693798
-1.9263238999999999 -1.7072349999999998 -1.4208117 -1.2455294 -0.88839617 -0.47775790000000007 -0.099044326 0.18898706 0.4565955 0.68388928 0.90009814 0.94101132 0.94947477 0.99893277 0.94897463 0.82744347 0.78173448 0.71188769 0.64823767 0.69262451 0.56480838 0.49460019 0.65125956 0.58689289 0.39271944 0.46809317 0.59618888 0.48342542 0.52306562 0.5137537 0.43378089 0.33661455 0.31448484 0.41624216 0.27971827 0.21400447 0.26661842 0.43474294 0.15539161 0.21200508 0.61498033 0.71676817 0.87342363 0.75727531 0.51954152 0.54603085 0.35220095 0.24965577 0.19693798 0.09165406599999999
-1.7072349999999998 -1.4208117 -1.2455294 -0.88839617 -0.47775790000000007 -0.099044326 0.18898706 0.4565955 0.68388928 0.90009814 0.94101132 0.94947477 0.99893277 0.94897463 0.82744347 0.78173448 0.71188769 0.64823767 0.69262451 0.56480838 0.49460019 0.65125956 0.58689289 0.39271944 0.46809317 0.59618888 0.48342542 0.52306562 0.5137537 0.43378089 0.33661455 0.31448484 0.41624216 0.27971827 0.21400447 0.26661842 0.43474294 0.15539161 0.21200508 0.61498033 0.71676817 0.87342363 0.75727531 0.51954152 0.54603085 0.35220095 0.24965577 0.19693798 0.09165406599999999 0.21048798
-1.4208117 -1.2455294 -0.88839617 -0.47775790000000007 -0.099044326 0.18898706 0.4565955 0.68388928 0.90009814 0.94101132 0.94947477 0.99893277 0.94897463 0.82744347 0.78173448 0.71188769 0.64823767 0.69262451 0.56480838 0.49460019 0.65125956 0.58689289 0.39271944 0.46809317 0.59618888 0.48342542 0.52306562 0.5137537 0.43378089 0.33661455 0.31448484 0.41624216 0.27971827 0.21400447 0.26661842 0.43474294 0.15539161 0.21200508 0.61498033 0.71676817 0.87342363 0.75727531 0.51954152 0.54603085 0.35220095 0.24965577 0.19693798 0.09165406599999999 0.21048798 -0.015256405
-1.2455294 -0.88839617 -0.47775790000000007 -0.099044326 0.18898706 0.4565955 0.68388928 0.90009814 0.94101132 0.94947477 0.99893277 0.94897463 0.82744347 0.78173448 0.71188769 0.64823767 0.69262451 0.56480838 0.49460019 0.65125956 0.58689289 0.39271944 0.46809317 0.59618888 0.48342542 0.52306562 0.5137537 0.43378089 0.33661455 0.31448484 0.41624216 0.27971827 0.21400447 0.26661842 0.43474294 0.15539161 0.21200508 0.61498033 0.71676817 0.87342363 0.75727531 0.51954152 0.54603085 0.35220095 0.24965577 0.19693798 0.09165406599999999 0.21048798 -0.015256405 0.095381521
-0.88839617 -0.47775790000000007 -0.099044326 0.18898706 0.4565955 0.68388928 0.90009814 0.94101132 0.94947477 0.99893277 0.94897463 0.82744347 0.78173448 0.71188769 0.64823767 0.69262451 0.56480838 0.49460019 0.65125956 0.58689289 0.39271944 0.46809317 0.59618888 0.48342542 0.52306562 0.5137537 0.43378089 0.33661455 0.31448484 0.41624216 0.27971827 0.21400447 0.26661842 0.43474294 0.15539161 0.21200508 0.61498033 0.71676817 0.87342363 0.75727531 0.51954152 0.54603085 0.35220095 0.24965577 0.19693798 0.09165406599999999 0.21048798 -0.015256405 0.095381521 0.12205830000000001
-0.47775790000000007 -0.099044326 0.18898706 0.4565955 0.68388928 0.90009814 0.94101132 0.94947477 0.99893277 0.94897463 0.82744347 0.78173448 0.71188769 0.64823767 0.69262451 0.56480838 0.49460019 0.65125956 0.58689289 0.39271944 0.46809317 0.59618888 0.48342542 0.52306562 0.5137537 0.43378089 0.33661455 0.31448484 0.41624216 0.27971827 0.21400447 0.26661842 0.43474294 0.15539161 0.21200508 0.61498033 0.71676817 0.87342363 0.75727531 0.51954152 0.54603085 0.35220095 0.24965577 0.19693798 0.09165406599999999 0.21048798 -0.015256405 0.095381521 0.12205830000000001 -0.028834468999999998
-0.099044326 0.18898706 0.4565955 0.68388928 0.90009814 0.94101132 0.94947477 0.99893277 0.94897463 0.82744347 0.78173448 0.71188769 0.64823767 0.69262451 0.56480838 0.49460019 0.65125956 0.58689289 0.39271944 0.46809317 0.59618888 0.48342542 0.52306562 0.5137537 0.43378089 0.33661455 0.31448484 0.41624216 0.27971827 0.21400447 0.26661842 0.43474294 0.15539161 0.21200508 0.61498033 0.71676817 0.87342363 0.75727531 0.51954152 0.54603085 0.35220095 0.24965577 0.19693798 0.09165406599999999 0.21048798 -0.015256405 0.095381521 0.12205830000000001 -0.028834468999999998 0.05916219
0.18898706 0.4565955 0.68388928 0.90009814 0.94101132 0.94947477 0.99893277 0.94897463 0.82744347 0.78173448 0.71188769 0.64823767 0.69262451 0.56480838 0.49460019 0.65125956 0.58689289 0.39271944 0.46809317 0.59618888 0.48342542 0.52306562 0.5137537 0.43378089 0.33661455 0.31448484 0.41624216 0.27971827 0.21400447 0.26661842 0.43474294 0.15539161 0.21200508 0.61498033 0.71676817 0.87342363 0.75727531 0.51954152 0.54603085 0.35220095 0.24965577 0.19693798 0.09165406599999999 0.21048798 -0.015256405 0.095381521 0.12205830000000001 -0.028834468999999998 0.05916219 0.063779768
0.4565955 0.68388928 0.90009814 0.94101132 0.94947477 0.99893277 0.94897463 0.82744347 0.78173448 0.71188769 0.64823767 0.69262451 0.56480838 0.49460019 0.65125956 0.58689289 0.39271944 0.46809317 0.59618888 0.48342542 0.52306562 0.5137537 0.43378089 0.33661455 0.31448484 0.41624216 0.27971827 0.21400447 0.26661842 0.43474294 0.15539161 0.21200508 0.61498033 0.71676817 0.87342363 0.75727531 0.51954152 0.54603085 0.35220095 0.24965577 0.19693798 0.09165406599999999 0.21048798 -0.015256405 0.095381521 0.12205830000000001 -0.028834468999999998 0.05916219 0.063779768 0.062518328
0.68388928 0.90009814 0.94101132 0.94947477 0.99893277 0.94897463 0.82744347 0.78173448 0.71188769 0.64823767 0.69262451 0.56480838 0.49460019 0.65125956 0.58689289 0.39271944 0.46809317 0.59618888 0.48342542 0.52306562 0.5137537 0.43378089 0.33661455 0.31448484 0.41624216 0.27971827 0.21400447 0.26661842 0.43474294 0.15539161 0.21200508 0.61498033 0.71676817 0.87342363 0.75727531 0.51954152 0.54603085 0.35220095 0.24965577 0.19693798 0.09165406599999999 0.21048798 -0.015256405 0.095381521 0.12205830000000001 -0.028834468999999998 0.05916219 0.063779768 0.062518328 0.050870599
0.90009814 0.94101132 0.94947477 0.99893277 0.94897463 0.82744347 0.78173448 0.71188769 0.64823767 0.69262451 0.56480838 0.49460019 0.65125956 0.58689289 0.39271944 0.46809317 0.59618888 0.48342542 0.52306562 0.5137537 0.43378089 0.33661455 0.31448484 0.41624216 0.27971827 0.21400447 0.26661842 0.43474294 0.15539161 0.21200508 0.61498033 0.71676817 0.87342363 0.75727531 0.51954152 0.54603085 0.35220095 0.24965577 0.19693798 0.09165406599999999 0.21048798 -0.015256405 0.095381521 0.12205830000000001 -0.028834468999999998 0.05916219 0.063779768 0.062518328 0.050870599 -0.003989843
0.94101132 0.94947477 0.99893277 0.94897463 0.82744347 0.78173448 0.71188769 0.64823767 0.69262451 0.56480838 0.49460019 0.65125956 0.58689289 0.39271944 0.46809317 0.59618888 0.48342542 0.52306562 0.5137537 0.43378089 0.33661455 0.31448484 0.41624216 0.27971827 0.21400447 0.26661842 0.43474294 0.15539161 0.21200508 0.61498033 0.71676817 0.87342363 0.75727531 0.51954152 0.54603085 0.35220095 0.24965577 0.19693798 0.09165406599999999 0.21048798 -0.015256405 0.095381521 0.12205830000000001 -0.028834468999999998 0.05916219 0.063779768 0.062518328 0.050870599 -0.003989843 0.054530579
0.94947477 0.99893277 0.94897463 0.82744347 0.78173448 0.71188769 0.64823767 0.69262451 0.56480838 0.49460019 0.65125956 0.58689289 0.39271944 0.46809317 0.59618888 0.48342542 0.52306562 0.5137537 0.43378089 0.33661455 0.31448484 0.41624216 0.27971827 0.21400447 0.26661842 0.43474294 0.15539161 0.21200508 0.61498033 0.71676817 0.87342363 0.75727531 0.51954152 0.54603085 0.35220095 0.24965577 0.19693798 0.09165406599999999 0.21048798 -0.015256405 0.095381521 0.12205830000000001 -0.028834468999999998 0.05916219 0.063779768 0.062518328 0.050870599 -0.003989843 0.054530579 0.17163876
0.99893277 0.94897463 0.82744347 0.78173448 0.71188769 0.64823767 0.69262451 0.56480838 0.49460019 0.65125956 0.58689289 0.39271944 0.46809317 0.59618888 0.48342542 0.52306562 0.5137537 0.43378089 0.33661455 0.31448484 0.41624216 0.27971827 0.21400447 0.26661842 0.43474294 0.15539161 0.21200508 0.61498033 0.71676817 0.87342363 0.75727531 0.51954152 0.54603085 0.35220095 0.24965577 0.19693798 0.09165406599999999 0.21048798 -0.015256405 0.095381521 0.12205830000000001 -0.028834468999999998 0.05916219 0.063779768 0.062518328 0.050870599 -0.003989843 0.054530579 0.17163876 0.11085684
