0.46737906 0.34010397 0.35138992 0.80988876 1.2934283000000002 1.7335345000000002 2.1628922999999998 2.1414868 1.6615111 1.1206418 0.45783849 -0.17802412 -0.22524688 0.03250859 -0.11686569999999999 -0.41491491 -0.35638904 -0.2509871 -0.36715659 -0.33877526 -0.081856181 -0.12102792 -0.58705515 -0.88692107 -0.77319756 -0.70316572 -0.87018086 -0.98921601 -1.031618 -1.1907084 -1.3504713 -1.315321 -1.2073897 -1.1992221 -1.2519025 -1.3806293 -1.6770096 -1.9131596999999998 -1.8040762 -1.6385741000000003 -1.802632 -1.9967517 -1.816844 -1.5127925 -1.4638601 -1.5593601000000001 -1.5239156999999999 -1.3369984 -1.1101437 -0.89923946
0.34010397 0.35138992 0.80988876 1.2934283000000002 1.7335345000000002 2.1628922999999998 2.1414868 1.6615111 1.1206418 0.45783849 -0.17802412 -0.22524688 0.03250859 -0.11686569999999999 -0.41491491 -0.35638904 -0.2509871 -0.36715659 -0.33877526 -0.081856181 -0.12102792 -0.58705515 -0.88692107 -0.77319756 -0.70316572 -0.87018086 -0.98921601 -1.031618 -1.1907084 -1.3504713 -1.315321 -1.2073897 -1.1992221 -1.2519025 -1.3806293 -1.6770096 -1.9131596999999998 -1.8040762 -1.6385741000000003 -1.802632 -1.9967517 -1.816844 -1.5127925 -1.4638601 -1.5593601000000001 -1.5239156999999999 -1.3369984 -1.1101437 -0.89923946 -0.7352989000000001
0.35138992 0.80988876 1.2934283000000002 1.7335345000000002 2.1628922999999998 2.1414868 1.6615111 1.1206418 0.45783849 -0.17802412 -0.22524688 0.03250859 -0.11686569999999999 -0.41491491 -0.35638904 -0.2509871 -0.36715659 -0.33877526 -0.081856181 -0.12102792 -0.58705515 -0.88692107 -0.77319756 -0.70316572 -0.87018086 -0.98921601 -1.031618 -1.1907084 -1.3504713 -1.315321 -1.2073897 -1.1992221 -1.2519025 -1.3806293 -1.6770096 -1.9131596999999998 -1.8040762 -1.6385741000000003 -1.802632 -1.9967517 -1.816844 -1.5127925 -1.4638601 -1.5593601000000001 -1.5239156999999999 -1.3369984 -1.1101437 -0.89923946 -0.7352989000000001 -0.62115511
0.80988876 1.2934283000000002 1.7335345000000002 2.1628922999999998 2.1414868 1.6615111 1.1206418 0.45783849 -0.17802412 -0.22524688 0.03250859 -0.11686569999999999 -0.41491491 -0.35638904 -0.2509871 -0.36715659 -0.33877526 -0.081856181 -0.12102792 -0.58705515 -0.88692107 -0.77319756 -0.70316572 -0.87018086 -0.98921601 -1.031618 -1.1907084 -1.3504713 -1.315321 -1.2073897 -1.1992221 -1.2519025 -1.3806293 -1.6770096 -1.9131596999999998 -1.8040762 -1.6385741000000003 -1.802632 -1.9967517 -1.816844 -1.5127925 -1.4638601 -1.5593601000000001 -1.5239156999999999 -1.3369984 -1.1101437 -0.89923946 -0.7352989000000001 -0.62115511 -0.45901969
1.2934283000000002 1.7335345000000002 2.1628922999999998 2.1414868 1.6615111 1.1206418 0.45783849 -0.17802412 -0.22524688 0.03250859 -0.11686569999999999 -0.41491491 -0.35638904 -0.2509871 -0.36715659 -0.33877526 -0.081856181 -0.12102792 -0.58705515 -0.88692107 -0.77319756 -0.70316572 -0.87018086 -0.98921601 -1.031618 -1.1907084 -1.3504713 -1.315321 -1.2073897 -1.1992221 -1.2519025 -1.3806293 -1.6770096 -1.9131596999999998 -1.8040762 -1.6385741000000003 -1.802632 -1.9967517 -1.816844 -1.5127925 -1.4638601 -1.5593601000000001 -1.5239156999999999 -1.3369984 -1.1101437 -0.89923946 -0.7352989000000001 -0.62115511 -0.45901969 -0.19245738
1.7335345000000002 2.1628922999999998 2.1414868 1.6615111 1.1206418 0.45783849 -0.17802412 -0.22524688 0.03250859 -0.11686569999999999 -0.41491491 -0.35638904 -0.2509871 -0.36715659 -0.33877526 -0.081856181 -0.12102792 -0.58705515 -0.88692107 -0.77319756 -0.70316572 -0.87018086 -0.98921601 -1.031618 -1.1907084 -1.3504713 -1.315321 -1.2073897 -1.1992221 -1.2519025 -1.3806293 -1.6770096 -1.9131596999999998 -1.8040762 -1.6385741000000003 -1.802632 -1.9967517 -1.816844 -1.5127925 -1.4638601 -1.5593601000000001 -1.5239156999999999 -1.3369984 -1.1101437 -0.89923946 -0.7352989000000001 -0.62115511 -0.45901969 -0.19245738 0.054817614
2.1628922999999998 2.1414868 1.6615111 1.1206418 0.45783849 -0.17802412 -0.22524688 0.03250859 -0.11686569999999999 -0.41491491 -0.35638904 -0.2509871 -0.36715659 -0.33877526 -0.081856181 -0.12102792 -0.58705515 -0.88692107 -0.77319756 -0.70316572 -0.87018086 -0.98921601 -1.031618 -1.1907084 -1.3504713 -1.315321 -1.2073897 -1.1992221 -1.2519025 -1.3806293 -1.6770096 -1.9131596999999998 -1.8040762 -1.6385741000000003 -1.802632 -1.9967517 -1.816844 -1.5127925 -1.4638601 -1.5593601000000001 -1.5239156999999999 -1.3369984 -1.1101437 -0.89923946 -0.7352989000000001 -0.62115511 -0.45901969 -0.19245738 0.054817614 0.20428428
2.1414868 1.6615111 1.1206418 0.45783849 -0.17802412 -0.22524688 0.03250859 -0.11686569999999999 -0.41491491 -0.35638904 -0.2509871 -0.36715659 -0.33877526 -0.081856181 -0.12102792 -0.58705515 -0.88692107 -0.77319756 -0.70316572 -0.87018086 -0.98921601 -1.031618 -1.1907084 -1.3504713 -1.315321 -1.2073897 -1.1992221 -1.2519025 -1.3806293 -1.6770096 -1.9131596999999998 -1.8040762 -1.6385741000000003 -1.802632 -1.9967517 -1.816844 -1.5127925 -1.4638601 -1.5593601000000001 -1.5239156999999999 -1.3369984 -1.1101437 -0.89923946 -0.7352989000000001 -0.62115511 -0.45901969 -0.19245738 0.054817614 0.20428428 0.32399129
1.6615111 1.1206418 0.45783849 -0.17802412 -0.22524688 0.03250859 -0.11686569999999999 -0.41491491 -0.35638904 -0.2509871 -0.36715659 -0.33877526 -0.081856181 -0.12102792 -0.58705515 -0.88692107 -0.77319756 -0.70316572 -0.87018086 -0.98921601 -1.031618 -1.1907084 -1.3504713 -1.315321 -1.2073897 -1.1992221 -1.2519025 -1.3806293 -1.6770096 -1.9131596999999998 -1.8040762 -1.6385741000000003 -1.802632 -1.9967517 -1.816844 -1.5127925 -1.4638601 -1.5593601000000001 -1.5239156999999999 -1.3369984 -1.1101437 -0.89923946 -0.7352989000000001 -0.62115511 -0.45901969 -0.19245738 0.054817614 0.20428428 0.32399129 0.41063033
1.1206418 0.45783849 -0.17802412 -0.22524688 0.03250859 -0.11686569999999999 -0.41491491 -0.35638904 -0.2509871 -0.36715659 -0.33877526 -0.081856181 -0.12102792 -0.58705515 -0.88692107 -0.77319756 -0.70316572 -0.87018086 -0.98921601 -1.031618 -1.1907084 -1.3504713 -1.315321 -1.2073897 -1.1992221 -1.2519025 -1.3806293 -1.6770096 -1.9131596999999998 -1.8040762 -1.6385741000000003 -1.802632 -1.9967517 -1.816844 -1.5127925 -1.4638601 -1.5593601000000001 -1.5239156999999999 -1.3369984 -1.1101437 -0.89923946 -0.7352989000000001 -0.62115511 -0.45901969 -0.19245738 0.054817614 0.20428428 0.32399129 0.41063033 0.45174631
0.45783849 -0.17802412 -0.22524688 0.03250859 -0.11686569999999999 -0.41491491 -0.35638904 -0.2509871 -0.36715659 -0.33877526 -0.081856181 -0.12102792 -0.58705515 -0.88692107 -0.77319756 -0.70316572 -0.87018086 -0.98921601 -1.031618 -1.1907084 -1.3504713 -1.315321 -1.2073897 -1.1992221 -1.2519025 -1.3806293 -1.6770096 -1.9131596999999998 -1.8040762 -1.6385741000000003 -1.802632 -1.9967517 -1.816844 -1.5127925 -1.4638601 -1.5593601000000001 -1.5239156999999999 -1.3369984 -1.1101437 -0.89923946 -0.7352989000000001 -0.62115511 -0.45901969 -0.19245738 0.054817614 0.20428428 0.32399129 0.41063033 0.45174631 0.55410401
-0.17802412 -0.22524688 0.03250859 -0.11686569999999999 -0.41491491 -0.35638904 -0.2509871 -0.36715659 -0.33877526 -0.081856181 -0.12102792 -0.58705515 -0.88692107 -0.77319756 -0.70316572 -0.87018086 -0.98921601 -1.031618 -1.1907084 -1.3504713 -1.315321 -1.2073897 -1.1992221 -1.2519025 -1.3806293 -1.6770096 -1.9131596999999998 -1.8040762 -1.6385741000000003 -1.802632 -1.9967517 -1.816844 -1.5127925 -1.4638601 -1.5593601000000001 -1.5239156999999999 -1.3369984 -1.1101437 -0.89923946 -0.7352989000000001 -0.62115511 -0.45901969 -0.19245738 0.054817614 0.20428428 0.32399129 0.41063033 0.45174631 0.55410401 0.71178704
-0.22524688 0.03250859 -0.11686569999999999 -0.41491491 -0.35638904 -0.2509871 -0.36715659 -0.33877526 -0.081856181 -0.12102792 -0.58705515 -0.88692107 -0.77319756 -0.70316572 -0.87018086 -0.98921601 -1.031618 -1.1907084 -1.3504713 -1.315321 -1.2073897 -1.1992221 -1.2519025 -1.3806293 -1.6770096 -1.9131596999999998 -1.8040762 -1.6385741000000003 -1.802632 -1.9967517 -1.816844 -1.5127925 -1.4638601 -1.5593601000000001 -1.5239156999999999 -1.3369984 -1.1101437 -0.89923946 -0.7352989000000001 -0.62115511 -0.45901969 -0.19245738 0.054817614 0.20428428 0.32399129 0.41063033 0.45174631 0.55410401 0.71178704 0.77912725
0.03250859 -0.11686569999999999 -0.41491491 -0.35638904 -0.2509871 -0.36715659 -0.33877526 -0.081856181 -0.12102792 -0.58705515 -0.88692107 -0.77319756 -0.70316572 -0.87018086 -0.98921601 -1.031618 -1.1907084 -1.3504713 -1.315321 -1.2073897 -1.1992221 -1.2519025 -1.3806293 -1.6770096 -1.9131596999999998 -1.8040762 -1.6385741000000003 -1.802632 -1.9967517 -1.816844 -1.5127925 -1.4638601 -1.5593601000000001 -1.5239156999999999 -1.3369984 -1.1101437 -0.89923946 -0.7352989000000001 -0.62115511 -0.45901969 -0.19245738 0.054817614 0.20428428 0.32399129 0.41063033 0.45174631 0.55410401 0.71178704 0.77912725 0.7638632
-0.11686569999999999 -0.41491491 -0.35638904 -0.2509871 -0.36715659 -0.33877526 -0.081856181 -0.12102792 -0.58705515 -0.88692107 -0.77319756 -0.70316572 -0.87018086 -0.98921601 -1.031618 -1.1907084 -1.3504713 -1.315321 -1.2073897 -1.1992221 -1.2519025 -1.3806293 -1.6770096 -1.9131596999999998 -1.8040762 -1.6385741000000003 -1.802632 -1.9967517 -1.816844 -1.5127925 -1.4638601 -1.5593601000000001 -1.5239156999999999 -1.3369984 -1.1101437 -0.89923946 -0.7352989000000001 -0.62115511 -0.45901969 -0.19245738 0.054817614 0.20428428 0.32399129 0.41063033 0.45174631 0.55410401 0.71178704 0.77912725 0.7638632 0.77773186
-0.41491491 -0.35638904 -0.2509871 -0.36715659 -0.33877526 -0.081856181 -0.12102792 -0.58705515 -0.88692107 -0.77319756 -0.70316572 -0.87018086 -0.98921601 -1.031618 -1.1907084 -1.3504713 -1.315321 -1.2073897 -1.1992221 -1.2519025 -1.3806293 -1.6770096 -1.9131596999999998 -1.8040762 -1.6385741000000003 -1.802632 -1.9967517 -1.816844 -1.5127925 -1.4638601 -1.5593601000000001 -1.5239156999999999 -1.3369984 -1.1101437 -0.89923946 -0.7352989000000001 -0.62115511 -0.45901969 -0.19245738 0.054817614 0.20428428 0.32399129 0.41063033 0.45174631 0.55410401 0.71178704 0.77912725 0.7638632 0.77773186 0.81778039
-0.35638904 -0.2509871 -0.36715659 -0.33877526 -0.081856181 -0.12102792 -0.58705515 -0.88692107 -0.77319756 -0.70316572 -0.87018086 -0.98921601 -1.031618 -1.1907084 -1.3504713 -1.315321 -1.2073897 -1.1992221 -1.2519025 -1.3806293 -1.6770096 -1.9131596999999998 -1.8040762 -1.6385741000000003 -1.802632 -1.9967517 -1.816844 -1.5127925 -1.4638601 -1.5593601000000001 -1.5239156999999999 -1.3369984 -1.1101437 -0.89923946 -0.7352989000000001 -0.62115511 -0.45901969 -0.19245738 0.054817614 0.20428428 0.32399129 0.41063033 0.45174631 0.55410401 0.71178704 0.77912725 0.7638632 0.77773186 0.81778039 0.85281043
-0.2509871 -0.36715659 -0.33877526 -0.081856181 -0.12102792 -0.58705515 -0.88692107 -0.77319756 -0.70316572 -0.87018086 -0.98921601 -1.031618 -1.1907084 -1.3504713 -1.315321 -1.2073897 -1.1992221 -1.2519025 -1.3806293 -1.6770096 -1.9131596999999998 -1.8040762 -1.6385741000000003 -1.802632 -1.9967517 -1.816844 -1.5127925 -1.4638601 -1.5593601000000001 -1.5239156999999999 -1.3369984 -1.1101437 -0.89923946 -0.7352989000000001 -0.62115511 -0.45901969 -0.19245738 0.054817614 0.20428428 0.32399129 0.41063033 0.45174631 0.55410401 0.71178704 0.77912725 0.7638632 0.77773186 0.81778039 0.85281043 0.86878147
-0.36715659 -0.33877526 -0.081856181 -0.12102792 -0.58705515 -0.88692107 -0.77319756 -0.70316572 -0.87018086 -0.98921601 -1.031618 -1.1907084 -1.3504713 -1.315321 -1.2073897 -1.1992221 -1.2519025 -1.3806293 -1.6770096 -1.9131596999999998 -1.8040762 -1.6385741000000003 -1.802632 -1.9967517 -1.816844 -1.5127925 -1.4638601 -1.5593601000000001 -1.5239156999999999 -1.3369984 -1.1101437 -0.89923946 -0.7352989000000001 -0.62115511 -0.45901969 -0.19245738 0.054817614 0.20428428 0.32399129 0.41063033 0.45174631 0.55410401 0.71178704 0.77912725 0.7638632 0.77773186 0.81778039 0.85281043 0.86878147 0.82122291
-0.33877526 -0.081856181 -0.12102792 -0.58705515 -0.88692107 -0.77319756 -0.70316572 -0.87018086 -0.98921601 -1.031618 -1.1907084 -1.3504713 -1.315321 -1.2073897 -1.1992221 -1.2519025 -1.3806293 -1.6770096 -1.9131596999999998 -1.8040762 -1.6385741000000003 -1.802632 -1.9967517 -1.816844 -1.5127925 -1.4638601 -1.5593601000000001 -1.5239156999999999 -1.3369984 -1.1101437 -0.89923946 -0.7352989000000001 -0.62115511 -0.45901969 -0.19245738 0.054817614 0.20428428 0.32399129 0.41063033 0.45174631 0.55410401 0.71178704 0.77912725 0.7638632 0.77773186 0.81778039 0.85281043 0.86878147 0.82122291 0.77448351
-0.081856181 -0.12102792 -0.58705515 -0.88692107 -0.77319756 -0.70316572 -0.87018086 -0.98921601 -1.031618 -1.1907084 -1.3504713 -1.315321 -1.2073897 -1.1992221 -1.2519025 -1.3806293 -1.6770096 -1.9131596999999998 -1.8040762 -1.6385741000000003 -1.802632 -1.9967517 -1.816844 -1.5127925 -1.4638601 -1.5593601000000001 -1.5239156999999999 -1.3369984 -1.1101437 -0.89923946 -0.7352989000000001 -0.62115511 -0.45901969 -0.19245738 0.054817614 0.20428428 0.32399129 0.41063033 0.45174631 0.55410401 0.71178704 0.77912725 0.7638632 0.77773186 0.81778039 0.85281043 0.86878147 0.82122291 0.77448351 0.81832998
-0.12102792 -0.58705515 -0.88692107 -0.77319756 -0.70316572 -0.87018086 -0.98921601 -1.031618 -1.1907084 -1.3504713 -1.315321 -1.2073897 -1.1992221 -1.2519025 -1.3806293 -1.6770096 -1.9131596999999998 -1.8040762 -1.6385741000000003 -1.802632 -1.9967517 -1.816844 -1.5127925 -1.4638601 -1.5593601000000001 -1.5239156999999999 -1.3369984 -1.1101437 -0.89923946 -0.7352989000000001 -0.62115511 -0.45901969 -0.19245738 0.054817614 0.20428428 0.32399129 0.41063033 0.45174631 0.55410401 0.71178704 0.77912725 0.7638632 0.77773186 0.81778039 0.85281043 0.86878147 0.82122291 0.77448351 0.81832998 0.83964346
-0.58705515 -0.88692107 -0.77319756 -0.70316572 -0.87018086 -0.98921601 -1.031618 -1.1907084 -1.3504713 -1.315321 -1.2073897 -1.1992221 -1.2519025 -1.3806293 -1.6770096 -1.9131596999999998 -1.8040762 -1.6385741000000003 -1.802632 -1.9967517 -1.816844 -1.5127925 -1.4638601 -1.5593601000000001 -1.5239156999999999 -1.3369984 -1.1101437 -0.89923946 -0.7352989000000001 -0.62115511 -0.45901969 -0.19245738 0.054817614 0.20428428 0.32399129 0.41063033 0.45174631 0.55410401 0.71178704 0.77912725 0.7638632 0.77773186 0.81778039 0.85281043 0.86878147 0.82122291 0.77448351 0.81832998 0.83964346 0.7881012
-0.88692107 -0.77319756 -0.70316572 -0.87018086 -0.98921601 -1.031618 -1.1907084 -1.3504713 -1.315321 -1.2073897 -1.1992221 -1.2519025 -1.3806293 -1.6770096 -1.9131596999999998 -1.8040762 -1.6385741000000003 -1.802632 -1.9967517 -1.816844 -1.5127925 -1.4638601 -1.5593601000000001 -1.5239156999999999 -1.3369984 -1.1101437 -0.89923946 -0.7352989000000001 -0.62115511 -0.45901969 -0.19245738 0.054817614 0.20428428 0.32399129 0.41063033 0.45174631 0.55410401 0.71178704 0.77912725 0.7638632 0.77773186 0.81778039 0.85281043 0.86878147 0.82122291 0.77448351 0.81832998 0.83964346 0.7881012 0.82925862
-0.77319756 -0.70316572 -0.87018086 -0.98921601 -1.031618 -1.1907084 -1.3504713 -1.315321 -1.2073897 -1.1992221 -1.2519025 -1.3806293 -1.6770096 -1.9131596999999998 -1.8040762 -1.6385741000000003 -1.802632 -1.9967517 -1.816844 -1.5127925 -1.4638601 -1.5593601000000001 -1.5239156999999999 -1.3369984 -1.1101437 -0.89923946 -0.7352989000000001 -0.62115511 -0.45901969 -0.19245738 0.054817614 0.20428428 0.32399129 0.41063033 0.45174631 0.55410401 0.71178704 0.77912725 0.7638632 0.77773186 0.81778039 0.85281043 0.86878147 0.82122291 0.77448351 0.81832998 0.83964346 0.7881012 0.82925862 0.90610556
-0.70316572 -0.87018086 -0.98921601 -1.031618 -1.1907084 -1.3504713 -1.315321 -1.2073897 -1.1992221 -1.2519025 -1.3806293 -1.6770096 -1.9131596999999998 -1.8040762 -1.6385741000000003 -1.802632 -1.9967517 -1.816844 -1.5127925 -1.4638601 -1.5593601000000001 -1.5239156999999999 -1.3369984 -1.1101437 -0.89923946 -0.7352989000000001 -0.62115511 -0.45901969 -0.19245738 0.054817614 0.20428428 0.32399129 0.41063033 0.45174631 0.55410401 0.71178704 0.77912725 0.7638632 0.77773186 0.81778039 0.85281043 0.86878147 0.82122291 0.77448351 0.81832998 0.83964346 0.7881012 0.82925862 0.90610556 0.78985702
-0.87018086 -0.98921601 -1.031618 -1.1907084 -1.3504713 -1.315321 -1.2073897 -1.1992221 -1.2519025 -1.3806293 -1.6770096 -1.9131596999999998 -1.8040762 -1.6385741000000003 -1.802632 -1.9967517 -1.816844 -1.5127925 -1.4638601 -1.5593601000000001 -1.5239156999999999 -1.3369984 -1.1101437 -0.89923946 -0.7352989000000001 -0.62115511 -0.45901969 -0.19245738 0.054817614 0.20428428 0.32399129 0.41063033 0.45174631 0.55410401 0.71178704 0.77912725 0.7638632 0.77773186 0.81778039 0.85281043 0.86878147 0.82122291 0.77448351 0.81832998 0.83964346 0.7881012 0.82925862 0.90610556 0.78985702 0.59219154
-0.98921601 -1.031618 -1.1907084 -1.3504713 -1.315321 -1.2073897 -1.1992221 -1.2519025 -1.3806293 -1.6770096 -1.9131596999999998 -1.8040762 -1.6385741000000003 -1.802632 -1.9967517 -1.816844 -1.5127925 -1.4638601 -1.5593601000000001 -1.5239156999999999 -1.3369984 -1.1101437 -0.89923946 -0.7352989000000001 -0.62115511 -0.45901969 -0.19245738 0.054817614 0.20428428 0.32399129 0.41063033 0.45174631 0.55410401 0.71178704 0.77912725 0.7638632 0.77773186 0.81778039 0.85281043 0.86878147 0.82122291 0.77448351 0.81832998 0.83964346 0.7881012 0.82925862 0.90610556 0.78985702 0.59219154 0.51037025
-1.031618 -1.1907084 -1.3504713 -1.315321 -1.2073897 -1.1992221 -1.2519025 -1.3806293 -1.6770096 -1.9131596999999998 -1.8040762 -1.6385741000000003 -1.802632 -1.9967517 -1.816844 -1.5127925 -1.4638601 -1.5593601000000001 -1.5239156999999999 -1.3369984 -1.1101437 -0.89923946 -0.7352989000000001 -0.62115511 -0.45901969 -0.19245738 0.054817614 0.20428428 0.32399129 0.41063033 0.45174631 0.55410401 0.71178704 0.77912725 0.7638632 0.77773186 0.81778039 0.85281043 0.86878147 0.82122291 0.77448351 0.81832998 0.83964346 0.7881012 0.82925862 0.90610556 0.78985702 0.59219154 0.51037025 0.48805409
-1.1907084 -1.3504713 -1.315321 -1.2073897 -1.1992221 -1.2519025 -1.3806293 -1.6770096 -1.9131596999999998 -1.8040762 -1.6385741000000003 -1.802632 -1.9967517 -1.816844 -1.5127925 -1.4638601 -1.5593601000000001 -1.5239156999999999 -1.3369984 -1.1101437 -0.89923946 -0.7352989000000001 -0.62115511 -0.45901969 -0.19245738 0.054817614 0.20428428 0.32399129 0.41063033 0.45174631 0.55410401 0.71178704 0.77912725 0.7638632 0.77773186 0.81778039 0.85281043 0.86878147 0.82122291 0.77448351 0.81832998 0.83964346 0.7881012 0.82925862 0.90610556 0.78985702 0.59219154 0.51037025 0.48805409 0.5551999
-1.3504713 -1.315321 -1.2073897 -1.1992221 -1.2519025 -1.3806293 -1.6770096 -1.9131596999999998 -1.8040762 -1.6385741000000003 -1.802632 -1.9967517 -1.816844 -1.5127925 -1.4638601 -1.5593601000000001 -1.5239156999999999 -1.3369984 -1.1101437 -0.89923946 -0.7352989000000001 -0.62115511 -0.45901969 -0.19245738 0.054817614 0.20428428 0.32399129 0.41063033 0.45174631 0.55410401 0.71178704 0.77912725 0.7638632 0.77773186 0.81778039 0.85281043 0.86878147 0.82122291 0.77448351 0.81832998 0.83964346 0.7881012 0.82925862 0.90610556 0.78985702 0.59219154 0.51037025 0.48805409 0.5551999 0.76294419
-1.315321 -1.2073897 -1.1992221 -1.2519025 -1.3806293 -1.6770096 -1.9131596999999998 -1.8040762 -1.6385741000000003 -1.802632 -1.9967517 -1.816844 -1.5127925 -1.4638601 -1.5593601000000001 -1.5239156999999999 -1.3369984 -1.1101437 -0.89923946 -0.7352989000000001 -0.62115511 -0.45901969 -0.19245738 0.054817614 0.20428428 0.32399129 0.41063033 0.45174631 0.55410401 0.71178704 0.77912725 0.7638632 0.77773186 0.81778039 0.85281043 0.86878147 0.82122291 0.77448351 0.81832998 0.83964346 0.7881012 0.82925862 0.90610556 0.78985702 0.59219154 0.51037025 0.48805409 0.5551999 0.76294419 0.90934581
-1.2073897 -1.1992221 -1.2519025 -1.3806293 -1.6770096 -1.9131596999999998 -1.8040762 -1.6385741000000003 -1.802632 -1.9967517 -1.816844 -1.5127925 -1.4638601 -1.5593601000000001 -1.5239156999999999 -1.3369984 -1.1101437 -0.89923946 -0.7352989000000001 -0.62115511 -0.45901969 -0.19245738 0.054817614 0.20428428 0.32399129 0.41063033 0.45174631 0.55410401 0.71178704 0.77912725 0.7638632 0.77773186 0.81778039 0.85281043 0.86878147 0.82122291 0.77448351 0.81832998 0.83964346 0.7881012 0.82925862 0.90610556 0.78985702 0.59219154 0.51037025 0.48805409 0.5551999 0.76294419 0.90934581 0.96187994
-1.1992221 -1.2519025 -1.3806293 -1.6770096 -1.9131596999999998 -1.8040762 -1.6385741000000003 -1.802632 -1.9967517 -1.816844 -1.5127925 -1.4638601 -1.5593601000000001 -1.5239156999999999 -1.3369984 -1.1101437 -0.89923946 -0.7352989000000001 -0.62115511 -0.45901969 -0.19245738 0.054817614 0.20428428 0.32399129 0.41063033 0.45174631 0.55410401 0.71178704 0.77912725 0.7638632 0.77773186 0.81778039 0.85281043 0.86878147 0.82122291 0.77448351 0.81832998 0.83964346 0.7881012 0.82925862 0.90610556 0.78985702 0.59219154 0.51037025 0.48805409 0.5551999 0.76294419 0.90934581 0.96187994 1.0330291999999999
-1.2519025 -1.3806293 -1.6770096 -1.9131596999999998 -1.8040762 -1.6385741000000003 -1.802632 -1.9967517 -1.816844 -1.5127925 -1.4638601 -1.5593601000000001 -1.5239156999999999 -1.3369984 -1.1101437 -0.89923946 -0.7352989000000001 -0.62115511 -0.45901969 -0.19245738 0.054817614 0.20428428 0.32399129 0.41063033 0.45174631 0.55410401 0.71178704 0.77912725 0.7638632 0.77773186 0.81778039 0.85281043 0.86878147 0.82122291 0.77448351 0.81832998 0.83964346 0.7881012 0.82925862 0.90610556 0.78985702 0.59219154 0.51037025 0.48805409 0.5551999 0.76294419 0.90934581 0.96187994 1.0330291999999999 0.8952405999999999
-1.3806293 -1.6770096 -1.9131596999999998 -1.8040762 -1.6385741000000003 -1.802632 -1.9967517 -1.816844 -1.5127925 -1.4638601 -1.5593601000000001 -1.5239156999999999 -1.3369984 -1.1101437 -0.89923946 -0.7352989000000001 -0.62115511 -0.45901969 -0.19245738 0.054817614 0.20428428 0.32399129 0.41063033 0.45174631 0.55410401 0.71178704 0.77912725 0.7638632 0.77773186 0.81778039 0.85281043 0.86878147 0.82122291 0.77448351 0.81832998 0.83964346 0.7881012 0.82925862 0.90610556 0.78985702 0.59219154 0.51037025 0.48805409 0.5551999 0.76294419 0.90934581 0.96187994 1.0330291999999999 0.8952405999999999 0.54303703
-1.6770096 -1.9131596999999998 -1.8040762 -1.6385741000000003 -1.802632 -1.9967517 -1.816844 -1.5127925 -1.4638601 -1.5593601000000001 -1.5239156999999999 -1.3369984 -1.1101437 -0.89923946 -0.7352989000000001 -0.62115511 -0.45901969 -0.19245738 0.054817614 0.20428428 0.32399129 0.41063033 0.45174631 0.55410401 0.71178704 0.77912725 0.7638632 0.77773186 0.81778039 0.85281043 0.86878147 0.82122291 0.77448351 0.81832998 0.83964346 0.7881012 0.82925862 0.90610556 0.78985702 0.59219154 0.51037025 0.48805409 0.5551999 0.76294419 0.90934581 0.96187994 1.0330291999999999 0.8952405999999999 0.54303703 0.48404181
-1.9131596999999998 -1.8040762 -1.6385741000000003 -1.802632 -1.9967517 -1.816844 -1.5127925 -1.4638601 -1.5593601000000001 -1.5239156999999999 -1.3369984 -1.1101437 -0.89923946 -0.7352989000000001 -0.62115511 -0.45901969 -0.19245738 0.054817614 0.20428428 0.32399129 0.41063033 0.45174631 0.55410401 0.71178704 0.77912725 0.7638632 0.77773186 0.81778039 0.85281043 0.86878147 0.82122291 0.77448351 0.81832998 0.83964346 0.7881012 0.82925862 0.90610556 0.78985702 0.59219154 0.51037025 0.48805409 0.5551999 0.76294419 0.90934581 0.96187994 1.0330291999999999 0.8952405999999999 0.54303703 0.48404181 0.67663296
-1.8040762 -1.6385741000000003 -1.802632 -1.9967517 -1.816844 -1.5127925 -1.4638601 -1.5593601000000001 -1.5239156999999999 -1.3369984 -1.1101437 -0.89923946 -0.7352989000000001 -0.62115511 -0.45901969 -0.19245738 0.054817614 0.20428428 0.32399129 0.41063033 0.45174631 0.55410401 0.71178704 0.77912725 0.7638632 0.77773186 0.81778039 0.85281043 0.86878147 0.82122291 0.77448351 0.81832998 0.83964346 0.7881012 0.82925862 0.90610556 0.78985702 0.59219154 0.51037025 0.48805409 0.5551999 0.76294419 0.90934581 0.96187994 1.0330291999999999 0.8952405999999999 0.54303703 0.48404181 0.67663296 0.5949164
-1.6385741000000003 -1.802632 -1.9967517 -1.816844 -1.5127925 -1.4638601 -1.5593601000000001 -1.5239156999999999 -1.3369984 -1.1101437 -0.89923946 -0.7352989000000001 -0.62115511 -0.45901969 -0.19245738 0.054817614 0.20428428 0.32399129 0.41063033 0.45174631 0.55410401 0.71178704 0.77912725 0.7638632 0.77773186 0.81778039 0.85281043 0.86878147 0.82122291 0.77448351 0.81832998 0.83964346 0.7881012 0.82925862 0.90610556 0.78985702 0.59219154 0.51037025 0.48805409 0.5551999 0.76294419 0.90934581 0.96187994 1.0330291999999999 0.8952405999999999 0.54303703 0.48404181 0.67663296 0.5949164 0.4540119000000001
-1.802632 -1.9967517 -1.816844 -1.5127925 -1.4638601 -1.5593601000000001 -1.5239156999999999 -1.3369984 -1.1101437 -0.89923946 -0.7352989000000001 -0.62115511 -0.45901969 -0.19245738 0.054817614 0.20428428 0.32399129 0.41063033 0.45174631 0.55410401 0.71178704 0.77912725 0.7638632 0.77773186 0.81778039 0.85281043 0.86878147 0.82122291 0.77448351 0.81832998 0.83964346 0.7881012 0.82925862 0.90610556 0.78985702 0.59219154 0.51037025 0.48805409 0.5551999 0.76294419 0.90934581 0.96187994 1.0330291999999999 0.8952405999999999 0.54303703 0.48404181 0.67663296 0.5949164 0.4540119000000001 0.72175261
-1.9967517 -1.816844 -1.5127925 -1.4638601 -1.5593601000000001 -1.5239156999999999 -1.3369984 -1.1101437 -0.89923946 -0.7352989000000001 -0.62115511 -0.45901969 -0.19245738 0.054817614 0.20428428 0.32399129 0.41063033 0.45174631 0.55410401 0.71178704 0.77912725 0.7638632 0.77773186 0.81778039 0.85281043 0.86878147 0.82122291 0.77448351 0.81832998 0.83964346 0.7881012 0.82925862 0.90610556 0.78985702 0.59219154 0.51037025 0.48805409 0.5551999 0.76294419 0.90934581 0.96187994 1.0330291999999999 0.8952405999999999 0.54303703 0.48404181 0.67663296 0.5949164 0.4540119000000001 0.72175261 0.98346048
-1.816844 -1.5127925 -1.4638601 -1.5593601000000001 -1.5239156999999999 -1.3369984 -1.1101437 -0.89923946 -0.7352989000000001 -0.62115511 -0.45901969 -0.19245738 0.054817614 0.20428428 0.32399129 0.41063033 0.45174631 0.55410401 0.71178704 0.77912725 0.7638632 0.77773186 0.81778039 0.85281043 0.86878147 0.82122291 0.77448351 0.81832998 0.83964346 0.7881012 0.82925862 0.90610556 0.78985702 0.59219154 0.51037025 0.48805409 0.5551999 0.76294419 0.90934581 0.96187994 1.0330291999999999 0.8952405999999999 0.54303703 0.48404181 0.67663296 0.5949164 0.4540119000000001 0.72175261 0.98346048 0.75150705
-1.5127925 -1.4638601 -1.5593601000000001 -1.5239156999999999 -1.3369984 -1.1101437 -0.89923946 -0.7352989000000001 -0.62115511 -0.45901969 -0.19245738 0.054817614 0.20428428 0.32399129 0.41063033 0.45174631 0.55410401 0.71178704 0.77912725 0.7638632 0.77773186 0.81778039 0.85281043 0.86878147 0.82122291 0.77448351 0.81832998 0.83964346 0.7881012 0.82925862 0.90610556 0.78985702 0.59219154 0.51037025 0.48805409 0.5551999 0.76294419 0.90934581 0.96187994 1.0330291999999999 0.8952405999999999 0.54303703 0.48404181 0.67663296 0.5949164 0.4540119000000001 0.72175261 0.98346048 0.75150705 0.49768455
-1.4638601 -1.5593601000000001 -1.5239156999999999 -1.3369984 -1.1101437 -0.89923946 -0.7352989000000001 -0.62115511 -0.45901969 -0.19245738 0.054817614 0.20428428 0.32399129 0.41063033 0.45174631 0.55410401 0.71178704 0.77912725 0.7638632 0.77773186 0.81778039 0.85281043 0.86878147 0.82122291 0.77448351 0.81832998 0.83964346 0.7881012 0.82925862 0.90610556 0.78985702 0.59219154 0.51037025 0.48805409 0.5551999 0.76294419 0.90934581 0.96187994 1.0330291999999999 0.8952405999999999 0.54303703 0.48404181 0.67663296 0.5949164 0.4540119000000001 0.72175261 0.98346048 0.75150705 0.49768455 0.71987873
-1.5593601000000001 -1.5239156999999999 -1.3369984 -1.1101437 -0.89923946 -0.7352989000000001 -0.62115511 -0.45901969 -0.19245738 0.054817614 0.20428428 0.32399129 0.41063033 0.45174631 0.55410401 0.71178704 0.77912725 0.7638632 0.77773186 0.81778039 0.85281043 0.86878147 0.82122291 0.77448351 0.81832998 0.83964346 0.7881012 0.82925862 0.90610556 0.78985702 0.59219154 0.51037025 0.48805409 0.5551999 0.76294419 0.90934581 0.96187994 1.0330291999999999 0.8952405999999999 0.54303703 0.48404181 0.67663296 0.5949164 0.4540119000000001 0.72175261 0.98346048 0.75150705 0.49768455 0.71987873 0.91141946
-1.5239156999999999 -1.3369984 -1.1101437 -0.89923946 -0.7352989000000001 -0.62115511 -0.45901969 -0.19245738 0.054817614 0.20428428 0.32399129 0.41063033 0.45174631 0.55410401 0.71178704 0.77912725 0.7638632 0.77773186 0.81778039 0.85281043 0.86878147 0.82122291 0.77448351 0.81832998 0.83964346 0.7881012 0.82925862 0.90610556 0.78985702 0.59219154 0.51037025 0.48805409 0.5551999 0.76294419 0.90934581 0.96187994 1.0330291999999999 0.8952405999999999 0.54303703 0.48404181 0.67663296 0.5949164 0.4540119000000001 0.72175261 0.98346048 0.75150705 0.49768455 0.71987873 0.91141946 0.49387098
