0.28914124 0.43851407 1.8578511000000002 3.1790404 1.9176691000000003 0.4844840999999999 -0.69042172 -0.97612467 0.30059564 0.68456713 -0.052810962999999995 0.035296862000000005 0.30537079 -0.794713 -1.2263427 -1.070343 -1.1958144 -1.2412898 -1.0606375 -1.2570629999999998 -1.3205333000000001 -1.2959316 -1.4023508999999998 -1.5843517 -1.6821089 -1.6730939999999999 -1.9533521 -1.977941 -1.9077707 -1.6603424 -1.966998 -1.9352513 -1.6467650000000003 -1.7517141999999999 -1.4279413 -0.93965752 -0.77476477 -0.40595796 -0.021661904 0.30652853 0.56240864 0.60510941 0.92062107 0.91369914 1.1957627 1.0438361999999999 1.0235478 1.1544901 0.89138749 1.0221171999999998
0.43851407 1.8578511000000002 3.1790404 1.9176691000000003 0.4844840999999999 -0.69042172 -0.97612467 0.30059564 0.68456713 -0.052810962999999995 0.035296862000000005 0.30537079 -0.794713 -1.2263427 -1.070343 -1.1958144 -1.2412898 -1.0606375 -1.2570629999999998 -1.3205333000000001 -1.2959316 -1.4023508999999998 -1.5843517 -1.6821089 -1.6730939999999999 -1.9533521 -1.977941 -1.9077707 -1.6603424 -1.966998 -1.9352513 -1.6467650000000003 -1.7517141999999999 -1.4279413 -0.93965752 -0.77476477 -0.40595796 -0.021661904 0.30652853 0.56240864 0.60510941 0.92062107 0.91369914 1.1957627 1.0438361999999999 1.0235478 1.1544901 0.89138749 1.0221171999999998 0.8441698000000001
1.8578511000000002 3.1790404 1.9176691000000003 0.4844840999999999 -0.69042172 -0.97612467 0.30059564 0.68456713 -0.052810962999999995 0.035296862000000005 0.30537079 -0.794713 -1.2263427 -1.070343 -1.1958144 -1.2412898 -1.0606375 -1.2570629999999998 -1.3205333000000001 -1.2959316 -1.4023508999999998 -1.5843517 -1.6821089 -1.6730939999999999 -1.9533521 -1.977941 -1.9077707 -1.6603424 -1.966998 -1.9352513 -1.6467650000000003 -1.7517141999999999 -1.4279413 -0.93965752 -0.77476477 -0.40595796 -0.021661904 0.30652853 0.56240864 0.60510941 0.92062107 0.91369914 1.1957627 1.0438361999999999 1.0235478 1.1544901 0.89138749 1.0221171999999998 0.8441698000000001 0.7521886999999999
3.1790404 1.9176691000000003 0.4844840999999999 -0.69042172 -0.97612467 0.30059564 0.68456713 -0.052810962999999995 0.035296862000000005 0.30537079 -0.794713 -1.2263427 -1.070343 -1.1958144 -1.2412898 -1.0606375 -1.2570629999999998 -1.3205333000000001 -1.2959316 -1.4023508999999998 -1.5843517 -1.6821089 -1.6730939999999999 -1.9533521 -1.977941 -1.9077707 -1.6603424 -1.966998 -1.9352513 -1.6467650000000003 -1.7517141999999999 -1.4279413 -0.93965752 -0.77476477 -0.40595796 -0.021661904 0.30652853 0.56240864 0.60510941 0.92062107 0.91369914 1.1957627 1.0438361999999999 1.0235478 1.1544901 0.89138749 1.0221171999999998 0.8441698000000001 0.7521886999999999 0.77935123
1.9176691000000003 0.4844840999999999 -0.69042172 -0.97612467 0.30059564 0.68456713 -0.052810962999999995 0.035296862000000005 0.30537079 -0.794713 -1.2263427 -1.070343 -1.1958144 -1.2412898 -1.0606375 -1.2570629999999998 -1.3205333000000001 -1.2959316 -1.4023508999999998 -1.5843517 -1.6821089 -1.6730939999999999 -1.9533521 -1.977941 -1.9077707 -1.6603424 -1.966998 -1.9352513 -1.6467650000000003 -1.7517141999999999 -1.4279413 -0.93965752 -0.77476477 -0.40595796 -0.021661904 0.30652853 0.56240864 0.60510941 0.92062107 0.91369914 1.1957627 1.0438361999999999 1.0235478 1.1544901 0.89138749 1.0221171999999998 0.8441698000000001 0.7521886999999999 0.77935123 0.68220534
0.4844840999999999 -0.69042172 -0.97612467 0.30059564 0.68456713 -0.052810962999999995 0.035296862000000005 0.30537079 -0.794713 -1.2263427 -1.070343 -1.1958144 -1.2412898 -1.0606375 -1.2570629999999998 -1.3205333000000001 -1.2959316 -1.4023508999999998 -1.5843517 -1.6821089 -1.6730939999999999 -1.9533521 -1.977941 -1.9077707 -1.6603424 -1.966998 -1.9352513 -1.6467650000000003 -1.7517141999999999 -1.4279413 -0.93965752 -0.77476477 -0.40595796 -0.021661904 0.30652853 0.56240864 0.60510941 0.92062107 0.91369914 1.1957627 1.0438361999999999 1.0235478 1.1544901 0.89138749 1.0221171999999998 0.8441698000000001 0.7521886999999999 0.77935123 0.68220534 0.80309438
-0.69042172 -0.97612467 0.30059564 0.68456713 -0.052810962999999995 0.035296862000000005 0.30537079 -0.794713 -1.2263427 -1.070343 -1.1958144 -1.2412898 -1.0606375 -1.2570629999999998 -1.3205333000000001 -1.2959316 -1.4023508999999998 -1.5843517 -1.6821089 -1.6730939999999999 -1.9533521 -1.977941 -1.9077707 -1.6603424 -1.966998 -1.9352513 -1.6467650000000003 -1.7517141999999999 -1.4279413 -0.93965752 -0.77476477 -0.40595796 -0.021661904 0.30652853 0.56240864 0.60510941 0.92062107 0.91369914 1.1957627 1.0438361999999999 1.0235478 1.1544901 0.89138749 1.0221171999999998 0.8441698000000001 0.7521886999999999 0.77935123 0.68220534 0.80309438 0.49716161
-0.97612467 0.30059564 0.68456713 -0.052810962999999995 0.035296862000000005 0.30537079 -0.794713 -1.2263427 -1.070343 -1.1958144 -1.2412898 -1.0606375 -1.2570629999999998 -1.3205333000000001 -1.2959316 -1.4023508999999998 -1.5843517 -1.6821089 -1.6730939999999999 -1.9533521 -1.977941 -1.9077707 -1.6603424 -1.966998 -1.9352513 -1.6467650000000003 -1.7517141999999999 -1.4279413 -0.93965752 -0.77476477 -0.40595796 -0.021661904 0.30652853 0.56240864 0.60510941 0.92062107 0.91369914 1.1957627 1.0438361999999999 1.0235478 1.1544901 0.89138749 1.0221171999999998 0.8441698000000001 0.7521886999999999 0.77935123 0.68220534 0.80309438 0.49716161 0.62815879
0.30059564 0.68456713 -0.052810962999999995 0.035296862000000005 0.30537079 -0.794713 -1.2263427 -1.070343 -1.1958144 -1.2412898 -1.0606375 -1.2570629999999998 -1.3205333000000001 -1.2959316 -1.4023508999999998 -1.5843517 -1.6821089 -1.6730939999999999 -1.9533521 -1.977941 -1.9077707 -1.6603424 -1.966998 -1.9352513 -1.6467650000000003 -1.7517141999999999 -1.4279413 -0.93965752 -0.77476477 -0.40595796 -0.021661904 0.30652853 0.56240864 0.60510941 0.92062107 0.91369914 1.1957627 1.0438361999999999 1.0235478 1.1544901 0.89138749 1.0221171999999998 0.8441698000000001 0.7521886999999999 0.77935123 0.68220534 0.80309438 0.49716161 0.62815879 0.66951919
0.68456713 -0.052810962999999995 0.035296862000000005 0.30537079 -0.794713 -1.2263427 -1.070343 -1.1958144 -1.2412898 -1.0606375 -1.2570629999999998 -1.3205333000000001 -1.2959316 -1.4023508999999998 -1.5843517 -1.6821089 -1.6730939999999999 -1.9533521 -1.977941 -1.9077707 -1.6603424 -1.966998 -1.9352513 -1.6467650000000003 -1.7517141999999999 -1.4279413 -0.93965752 -0.77476477 -0.40595796 -0.021661904 0.30652853 0.56240864 0.60510941 0.92062107 0.91369914 1.1957627 1.0438361999999999 1.0235478 1.1544901 0.89138749 1.0221171999999998 0.8441698000000001 0.7521886999999999 0.77935123 0.68220534 0.80309438 0.49716161 0.62815879 0.66951919 0.71510853
-0.052810962999999995 0.035296862000000005 0.30537079 -0.794713 -1.2263427 -1.070343 -1.1958144 -1.2412898 -1.0606375 -1.2570629999999998 -1.3205333000000001 -1.2959316 -1.4023508999999998 -1.5843517 -1.6821089 -1.6730939999999999 -1.9533521 -1.977941 -1.9077707 -1.6603424 -1.966998 -1.9352513 -1.6467650000000003 -1.7517141999999999 -1.4279413 -0.93965752 -0.77476477 -0.40595796 -0.021661904 0.30652853 0.56240864 0.60510941 0.92062107 0.91369914 1.1957627 1.0438361999999999 1.0235478 1.1544901 0.89138749 1.0221171999999998 0.8441698000000001 0.7521886999999999 0.77935123 0.68220534 0.80309438 0.49716161 0.62815879 0.66951919 0.71510853 0.66328456
0.035296862000000005 0.30537079 -0.794713 -1.2263427 -1.070343 -1.1958144 -1.2412898 -1.0606375 -1.2570629999999998 -1.3205333000000001 -1.2959316 -1.4023508999999998 -1.5843517 -1.6821089 -1.6730939999999999 -1.9533521 -1.977941 -1.9077707 -1.6603424 -1.966998 -1.9352513 -1.6467650000000003 -1.7517141999999999 -1.4279413 -0.93965752 -0.77476477 -0.40595796 -0.021661904 0.30652853 0.56240864 0.60510941 0.92062107 0.91369914 1.1957627 1.0438361999999999 1.0235478 1.1544901 0.89138749 1.0221171999999998 0.8441698000000001 0.7521886999999999 0.77935123 0.68220534 0.80309438 0.49716161 0.62815879 0.66951919 0.71510853 0.66328456 0.3520508
0.30537079 -0.794713 -1.2263427 -1.070343 -1.1958144 -1.2412898 -1.0606375 -1.2570629999999998 -1.3205333000000001 -1.2959316 -1.4023508999999998 -1.5843517 -1.6821089 -1.6730939999999999 -1.9533521 -1.977941 -1.9077707 -1.6603424 -1.966998 -1.9352513 -1.6467650000000003 -1.7517141999999999 -1.4279413 -0.93965752 -0.77476477 -0.40595796 -0.021661904 0.30652853 0.56240864 0.60510941 0.92062107 0.91369914 1.1957627 1.0438361999999999 1.0235478 1.1544901 0.89138749 1.0221171999999998 0.8441698000000001 0.7521886999999999 0.77935123 0.68220534 0.80309438 0.49716161 0.62815879 0.66951919 0.71510853 0.66328456 0.3520508 0.45899113
-0.794713 -1.2263427 -1.070343 -1.1958144 -1.2412898 -1.0606375 -1.2570629999999998 -1.3205333000000001 -1.2959316 -1.4023508999999998 -1.5843517 -1.6821089 -1.6730939999999999 -1.9533521 -1.977941 -1.9077707 -1.6603424 -1.966998 -1.9352513 -1.6467650000000003 -1.7517141999999999 -1.4279413 -0.93965752 -0.77476477 -0.40595796 -0.021661904 0.30652853 0.56240864 0.60510941 0.92062107 0.91369914 1.1957627 1.0438361999999999 1.0235478 1.1544901 0.89138749 1.0221171999999998 0.8441698000000001 0.7521886999999999 0.77935123 0.68220534 0.80309438 0.49716161 0.62815879 0.66951919 0.71510853 0.66328456 0.3520508 0.45899113 0.70632428
-1.2263427 -1.070343 -1.1958144 -1.2412898 -1.0606375 -1.2570629999999998 -1.3205333000000001 -1.2959316 -1.4023508999999998 -1.5843517 -1.6821089 -1.6730939999999999 -1.9533521 -1.977941 -1.9077707 -1.6603424 -1.966998 -1.9352513 -1.6467650000000003 -1.7517141999999999 -1.4279413 -0.93965752 -0.77476477 -0.40595796 -0.021661904 0.30652853 0.56240864 0.60510941 0.92062107 0.91369914 1.1957627 1.0438361999999999 1.0235478 1.1544901 0.89138749 1.0221171999999998 0.8441698000000001 0.7521886999999999 0.77935123 0.68220534 0.80309438 0.49716161 0.62815879 0.66951919 0.71510853 0.66328456 0.3520508 0.45899113 0.70632428 0.60334804
-1.070343 -1.1958144 -1.2412898 -1.0606375 -1.2570629999999998 -1.3205333000000001 -1.2959316 -1.4023508999999998 -1.5843517 -1.6821089 -1.6730939999999999 -1.9533521 -1.977941 -1.9077707 -1.6603424 -1.966998 -1.9352513 -1.6467650000000003 -1.7517141999999999 -1.4279413 -0.93965752 -0.77476477 -0.40595796 -0.021661904 0.30652853 0.56240864 0.60510941 0.92062107 0.91369914 1.1957627 1.0438361999999999 1.0235478 1.1544901 0.89138749 1.0221171999999998 0.8441698000000001 0.7521886999999999 0.77935123 0.68220534 0.80309438 0.49716161 0.62815879 0.66951919 0.71510853 0.66328456 0.3520508 0.45899113 0.70632428 0.60334804 0.35210943
-1.1958144 -1.2412898 -1.0606375 -1.2570629999999998 -1.3205333000000001 -1.2959316 -1.4023508999999998 -1.5843517 -1.6821089 -1.6730939999999999 -1.9533521 -1.977941 -1.9077707 -1.6603424 -1.966998 -1.9352513 -1.6467650000000003 -1.7517141999999999 -1.4279413 -0.93965752 -0.77476477 -0.40595796 -0.021661904 0.30652853 0.56240864 0.60510941 0.92062107 0.91369914 1.1957627 1.0438361999999999 1.0235478 1.1544901 0.89138749 1.0221171999999998 0.8441698000000001 0.7521886999999999 0.77935123 0.68220534 0.80309438 0.49716161 0.62815879 0.66951919 0.71510853 0.66328456 0.3520508 0.45899113 0.70632428 0.60334804 0.35210943 0.23021697
-1.2412898 -1.0606375 -1.2570629999999998 -1.3205333000000001 -1.2959316 -1.4023508999999998 -1.5843517 -1.6821089 -1.6730939999999999 -1.9533521 -1.977941 -1.9077707 -1.6603424 -1.966998 -1.9352513 -1.6467650000000003 -1.7517141999999999 -1.4279413 -0.93965752 -0.77476477 -0.40595796 -0.021661904 0.30652853 0.56240864 0.60510941 0.92062107 0.91369914 1.1957627 1.0438361999999999 1.0235478 1.1544901 0.89138749 1.0221171999999998 0.8441698000000001 0.7521886999999999 0.77935123 0.68220534 0.80309438 0.49716161 0.62815879 0.66951919 0.71510853 0.66328456 0.3520508 0.45899113 0.70632428 0.60334804 0.35210943 0.23021697 0.3873167
-1.0606375 -1.2570629999999998 -1.3205333000000001 -1.2959316 -1.4023508999999998 -1.5843517 -1.6821089 -1.6730939999999999 -1.9533521 -1.977941 -1.9077707 -1.6603424 -1.966998 -1.9352513 -1.6467650000000003 -1.7517141999999999 -1.4279413 -0.93965752 -0.77476477 -0.40595796 -0.021661904 0.30652853 0.56240864 0.60510941 0.92062107 0.91369914 1.1957627 1.0438361999999999 1.0235478 1.1544901 0.89138749 1.0221171999999998 0.8441698000000001 0.7521886999999999 0.77935123 0.68220534 0.80309438 0.49716161 0.62815879 0.66951919 0.71510853 0.66328456 0.3520508 0.45899113 0.70632428 0.60334804 0.35210943 0.23021697 0.3873167 0.27626911
-1.2570629999999998 -1.3205333000000001 -1.2959316 -1.4023508999999998 -1.5843517 -1.6821089 -1.6730939999999999 -1.9533521 -1.977941 -1.9077707 -1.6603424 -1.966998 -1.9352513 -1.6467650000000003 -1.7517141999999999 -1.4279413 -0.93965752 -0.77476477 -0.40595796 -0.021661904 0.30652853 0.56240864 0.60510941 0.92062107 0.91369914 1.1957627 1.0438361999999999 1.0235478 1.1544901 0.89138749 1.0221171999999998 0.8441698000000001 0.7521886999999999 0.77935123 0.68220534 0.80309438 0.49716161 0.62815879 0.66951919 0.71510853 0.66328456 0.3520508 0.45899113 0.70632428 0.60334804 0.35210943 0.23021697 0.3873167 0.27626911 0.41590847
-1.3205333000000001 -1.2959316 -1.4023508999999998 -1.5843517 -1.6821089 -1.6730939999999999 -1.9533521 -1.977941 -1.9077707 -1.6603424 -1.966998 -1.9352513 -1.6467650000000003 -1.7517141999999999 -1.4279413 -0.93965752 -0.77476477 -0.40595796 -0.021661904 0.30652853 0.56240864 0.60510941 0.92062107 0.91369914 1.1957627 1.0438361999999999 1.0235478 1.1544901 0.89138749 1.0221171999999998 0.8441698000000001 0.7521886999999999 0.77935123 0.68220534 0.80309438 0.49716161 0.62815879 0.66951919 0.71510853 0.66328456 0.3520508 0.45899113 0.70632428 0.60334804 0.35210943 0.23021697 0.3873167 0.27626911 0.41590847 0.61818513
-1.2959316 -1.4023508999999998 -1.5843517 -1.6821089 -1.6730939999999999 -1.9533521 -1.977941 -1.9077707 -1.6603424 -1.966998 -1.9352513 -1.6467650000000003 -1.7517141999999999 -1.4279413 -0.93965752 -0.77476477 -0.40595796 -0.021661904 0.30652853 0.56240864 0.60510941 0.92062107 0.91369914 1.1957627 1.0438361999999999 1.0235478 1.1544901 0.89138749 1.0221171999999998 0.8441698000000001 0.7521886999999999 0.77935123 0.68220534 0.80309438 0.49716161 0.62815879 0.66951919 0.71510853 0.66328456 0.3520508 0.45899113 0.70632428 0.60334804 0.35210943 0.23021697 0.3873167 0.27626911 0.41590847 0.61818513 -0.06374357900000001
-1.4023508999999998 -1.5843517 -1.6821089 -1.6730939999999999 -1.9533521 -1.977941 -1.9077707 -1.6603424 -1.966998 -1.9352513 -1.6467650000000003 -1.7517141999999999 -1.4279413 -0.93965752 -0.77476477 -0.40595796 -0.021661904 0.30652853 0.56240864 0.60510941 0.92062107 0.91369914 1.1957627 1.0438361999999999 1.0235478 1.1544901 0.89138749 1.0221171999999998 0.8441698000000001 0.7521886999999999 0.77935123 0.68220534 0.80309438 0.49716161 0.62815879 0.66951919 0.71510853 0.66328456 0.3520508 0.45899113 0.70632428 0.60334804 0.35210943 0.23021697 0.3873167 0.27626911 0.41590847 0.61818513 -0.06374357900000001 0.84626844
-1.5843517 -1.6821089 -1.6730939999999999 -1.9533521 -1.977941 -1.9077707 -1.6603424 -1.966998 -1.9352513 -1.6467650000000003 -1.7517141999999999 -1.4279413 -0.93965752 -0.77476477 -0.40595796 -0.021661904 0.30652853 0.56240864 0.60510941 0.92062107 0.91369914 1.1957627 1.0438361999999999 1.0235478 1.1544901 0.89138749 1.0221171999999998 0.8441698000000001 0.7521886999999999 0.77935123 0.68220534 0.80309438 0.49716161 0.62815879 0.66951919 0.71510853 0.66328456 0.3520508 0.45899113 0.70632428 0.60334804 0.35210943 0.23021697 0.3873167 0.27626911 0.41590847 0.61818513 -0.06374357900000001 0.84626844 0.89760666
-1.6821089 -1.6730939999999999 -1.9533521 -1.977941 -1.9077707 -1.6603424 -1.966998 -1.9352513 -1.6467650000000003 -1.7517141999999999 -1.4279413 -0.93965752 -0.77476477 -0.40595796 -0.021661904 0.30652853 0.56240864 0.60510941 0.92062107 0.91369914 1.1957627 1.0438361999999999 1.0235478 1.1544901 0.89138749 1.0221171999999998 0.8441698000000001 0.7521886999999999 0.77935123 0.68220534 0.80309438 0.49716161 0.62815879 0.66951919 0.71510853 0.66328456 0.3520508 0.45899113 0.70632428 0.60334804 0.35210943 0.23021697 0.3873167 0.27626911 0.41590847 0.61818513 -0.06374357900000001 0.84626844 0.89760666 0.79957922
-1.6730939999999999 -1.9533521 -1.977941 -1.9077707 -1.6603424 -1.966998 -1.9352513 -1.6467650000000003 -1.7517141999999999 -1.4279413 -0.93965752 -0.77476477 -0.40595796 -0.021661904 0.30652853 0.56240864 0.60510941 0.92062107 0.91369914 1.1957627 1.0438361999999999 1.0235478 1.1544901 0.89138749 1.0221171999999998 0.8441698000000001 0.7521886999999999 0.77935123 0.68220534 0.80309438 0.49716161 0.62815879 0.66951919 0.71510853 0.66328456 0.3520508 0.45899113 0.70632428 0.60334804 0.35210943 0.23021697 0.3873167 0.27626911 0.41590847 0.61818513 -0.06374357900000001 0.84626844 0.89760666 0.79957922 0.89144874
-1.9533521 -1.977941 -1.9077707 -1.6603424 -1.966998 -1.9352513 -1.6467650000000003 -1.7517141999999999 -1.4279413 -0.93965752 -0.77476477 -0.40595796 -0.021661904 0.30652853 0.56240864 0.60510941 0.92062107 0.91369914 1.1957627 1.0438361999999999 1.0235478 1.1544901 0.89138749 1.0221171999999998 0.8441698000000001 0.7521886999999999 0.77935123 0.68220534 0.80309438 0.49716161 0.62815879 0.66951919 0.71510853 0.66328456 0.3520508 0.45899113 0.70632428 0.60334804 0.35210943 0.23021697 0.3873167 0.27626911 0.41590847 0.61818513 -0.06374357900000001 0.84626844 0.89760666 0.79957922 0.89144874 0.72312945
-1.977941 -1.9077707 -1.6603424 -1.966998 -1.9352513 -1.6467650000000003 -1.7517141999999999 -1.4279413 -0.93965752 -0.77476477 -0.40595796 -0.021661904 0.30652853 0.56240864 0.60510941 0.92062107 0.91369914 1.1957627 1.0438361999999999 1.0235478 1.1544901 0.89138749 1.0221171999999998 0.8441698000000001 0.7521886999999999 0.77935123 0.68220534 0.80309438 0.49716161 0.62815879 0.66951919 0.71510853 0.66328456 0.3520508 0.45899113 0.70632428 0.60334804 0.35210943 0.23021697 0.3873167 0.27626911 0.41590847 0.61818513 -0.06374357900000001 0.84626844 0.89760666 0.79957922 0.89144874 0.72312945 1.0286766
-1.9077707 -1.6603424 -1.966998 -1.9352513 -1.6467650000000003 -1.7517141999999999 -1.4279413 -0.93965752 -0.77476477 -0.40595796 -0.021661904 0.30652853 0.56240864 0.60510941 0.92062107 0.91369914 1.1957627 1.0438361999999999 1.0235478 1.1544901 0.89138749 1.0221171999999998 0.8441698000000001 0.7521886999999999 0.77935123 0.68220534 0.80309438 0.49716161 0.62815879 0.66951919 0.71510853 0.66328456 0.3520508 0.45899113 0.70632428 0.60334804 0.35210943 0.23021697 0.3873167 0.27626911 0.41590847 0.61818513 -0.06374357900000001 0.84626844 0.89760666 0.79957922 0.89144874 0.72312945 1.0286766 0.42059035
-1.6603424 -1.966998 -1.9352513 -1.6467650000000003 -1.7517141999999999 -1.4279413 -0.93965752 -0.77476477 -0.40595796 -0.021661904 0.30652853 0.56240864 0.60510941 0.92062107 0.91369914 1.1957627 1.0438361999999999 1.0235478 1.1544901 0.89138749 1.0221171999999998 0.8441698000000001 0.7521886999999999 0.77935123 0.68220534 0.80309438 0.49716161 0.62815879 0.66951919 0.71510853 0.66328456 0.3520508 0.45899113 0.70632428 0.60334804 0.35210943 0.23021697 0.3873167 0.27626911 0.41590847 0.61818513 -0.06374357900000001 0.84626844 0.89760666 0.79957922 0.89144874 0.72312945 1.0286766 0.42059035 0.30022362
-1.966998 -1.9352513 -1.6467650000000003 -1.7517141999999999 -1.4279413 -0.93965752 -0.77476477 -0.40595796 -0.021661904 0.30652853 0.56240864 0.60510941 0.92062107 0.91369914 1.1957627 1.0438361999999999 1.0235478 1.1544901 0.89138749 1.0221171999999998 0.8441698000000001 0.7521886999999999 0.77935123 0.68220534 0.80309438 0.49716161 0.62815879 0.66951919 0.71510853 0.66328456 0.3520508 0.45899113 0.70632428 0.60334804 0.35210943 0.23021697 0.3873167 0.27626911 0.41590847 0.61818513 -0.06374357900000001 0.84626844 0.89760666 0.79957922 0.89144874 0.72312945 1.0286766 0.42059035 0.30022362 0.28447616
-1.9352513 -1.6467650000000003 -1.7517141999999999 -1.4279413 -0.93965752 -0.77476477 -0.40595796 -0.021661904 0.30652853 0.56240864 0.60510941 0.92062107 0.91369914 1.1957627 1.0438361999999999 1.0235478 1.1544901 0.89138749 1.0221171999999998 0.8441698000000001 0.7521886999999999 0.77935123 0.68220534 0.80309438 0.49716161 0.62815879 0.66951919 0.71510853 0.66328456 0.3520508 0.45899113 0.70632428 0.60334804 0.35210943 0.23021697 0.3873167 0.27626911 0.41590847 0.61818513 -0.06374357900000001 0.84626844 0.89760666 0.79957922 0.89144874 0.72312945 1.0286766 0.42059035 0.30022362 0.28447616 -0.055718535
-1.6467650000000003 -1.7517141999999999 -1.4279413 -0.93965752 -0.77476477 -0.40595796 -0.021661904 0.30652853 0.56240864 0.60510941 0.92062107 0.91369914 1.1957627 1.0438361999999999 1.0235478 1.1544901 0.89138749 1.0221171999999998 0.8441698000000001 0.7521886999999999 0.77935123 0.68220534 0.80309438 0.49716161 0.62815879 0.66951919 0.71510853 0.66328456 0.3520508 0.45899113 0.70632428 0.60334804 0.35210943 0.23021697 0.3873167 0.27626911 0.41590847 0.61818513 -0.06374357900000001 0.84626844 0.89760666 0.79957922 0.89144874 0.72312945 1.0286766 0.42059035 0.30022362 0.28447616 -0.055718535 0.17362511
-1.7517141999999999 -1.4279413 -0.93965752 -0.77476477 -0.40595796 -0.021661904 0.30652853 0.56240864 0.60510941 0.92062107 0.91369914 1.1957627 1.0438361999999999 1.0235478 1.1544901 0.89138749 1.0221171999999998 0.8441698000000001 0.7521886999999999 0.77935123 0.68220534 0.80309438 0.49716161 0.62815879 0.66951919 0.71510853 0.66328456 0.3520508 0.45899113 0.70632428 0.60334804 0.35210943 0.23021697 0.3873167 0.27626911 0.41590847 0.61818513 -0.06374357900000001 0.84626844 0.89760666 0.79957922 0.89144874 0.72312945 1.0286766 0.42059035 0.30022362 0.28447616 -0.055718535 0.17362511 -0.07873725
-1.4279413 -0.93965752 -0.77476477 -0.40595796 -0.021661904 0.30652853 0.56240864 0.60510941 0.92062107 0.91369914 1.1957627 1.0438361999999999 1.0235478 1.1544901 0.89138749 1.0221171999999998 0.8441698000000001 0.7521886999999999 0.77935123 0.68220534 0.80309438 0.49716161 0.62815879 0.66951919 0.71510853 0.66328456 0.3520508 0.45899113 0.70632428 0.60334804 0.35210943 0.23021697 0.3873167 0.27626911 0.41590847 0.61818513 -0.06374357900000001 0.84626844 0.89760666 0.79957922 0.89144874 0.72312945 1.0286766 0.42059035 0.30022362 0.28447616 -0.055718535 0.17362511 -0.07873725 -0.006596848000000001
-0.93965752 -0.77476477 -0.40595796 -0.021661904 0.30652853 0.56240864 0.60510941 0.92062107 0.91369914 1.1957627 1.0438361999999999 1.0235478 1.1544901 0.89138749 1.0221171999999998 0.8441698000000001 0.7521886999999999 0.77935123 0.68220534 0.80309438 0.49716161 0.62815879 0.66951919 0.71510853 0.66328456 0.3520508 0.45899113 0.70632428 0.60334804 0.35210943 0.23021697 0.3873167 0.27626911 0.41590847 0.61818513 -0.06374357900000001 0.84626844 0.89760666 0.79957922 0.89144874 0.72312945 1.0286766 0.42059035 0.30022362 0.28447616 -0.055718535 0.17362511 -0.07873725 -0.006596848000000001 0.017776906999999998
-0.77476477 -0.40595796 -0.021661904 0.30652853 0.56240864 0.60510941 0.92062107 0.91369914 1.1957627 1.0438361999999999 1.0235478 1.1544901 0.89138749 1.0221171999999998 0.8441698000000001 0.7521886999999999 0.77935123 0.68220534 0.80309438 0.49716161 0.62815879 0.66951919 0.71510853 0.66328456 0.3520508 0.45899113 0.70632428 0.60334804 0.35210943 0.23021697 0.3873167 0.27626911 0.41590847 0.61818513 -0.06374357900000001 0.84626844 0.89760666 0.79957922 0.89144874 0.72312945 1.0286766 0.42059035 0.30022362 0.28447616 -0.055718535 0.17362511 -0.07873725 -0.006596848000000001 0.017776906999999998 -0.074981299
-0.40595796 -0.021661904 0.30652853 0.56240864 0.60510941 0.92062107 0.91369914 1.1957627 1.0438361999999999 1.0235478 1.1544901 0.89138749 1.0221171999999998 0.8441698000000001 0.7521886999999999 0.77935123 0.68220534 0.80309438 0.49716161 0.62815879 0.66951919 0.71510853 0.66328456 0.3520508 0.45899113 0.70632428 0.60334804 0.35210943 0.23021697 0.3873167 0.27626911 0.41590847 0.61818513 -0.06374357900000001 0.84626844 0.89760666 0.79957922 0.89144874 0.72312945 1.0286766 0.42059035 0.30022362 0.28447616 -0.055718535 0.17362511 -0.07873725 -0.006596848000000001 0.017776906999999998 -0.074981299 0.061268909
-0.021661904 0.30652853 0.56240864 0.60510941 0.92062107 0.91369914 1.1957627 1.0438361999999999 1.0235478 1.1544901 0.89138749 1.0221171999999998 0.8441698000000001 0.7521886999999999 0.77935123 0.68220534 0.80309438 0.49716161 0.62815879 0.66951919 0.71510853 0.66328456 0.3520508 0.45899113 0.70632428 0.60334804 0.35210943 0.23021697 0.3873167 0.27626911 0.41590847 0.61818513 -0.06374357900000001 0.84626844 0.89760666 0.79957922 0.89144874 0.72312945 1.0286766 0.42059035 0.30022362 0.28447616 -0.055718535 0.17362511 -0.07873725 -0.006596848000000001 0.017776906999999998 -0.074981299 0.061268909 -0.096789729
0.30652853 0.56240864 0.60510941 0.92062107 0.91369914 1.1957627 1.0438361999999999 1.0235478 1.1544901 0.89138749 1.0221171999999998 0.8441698000000001 0.7521886999999999 0.77935123 0.68220534 0.80309438 0.49716161 0.62815879 0.66951919 0.71510853 0.66328456 0.3520508 0.45899113 0.70632428 0.60334804 0.35210943 0.23021697 0.3873167 0.27626911 0.41590847 0.61818513 -0.06374357900000001 0.84626844 0.89760666 0.79957922 0.89144874 0.72312945 1.0286766 0.42059035 0.30022362 0.28447616 -0.055718535 0.17362511 -0.07873725 -0.006596848000000001 0.017776906999999998 -0.074981299 0.061268909 -0.096789729 0.037139115
0.56240864 0.60510941 0.92062107 0.91369914 1.1957627 1.0438361999999999 1.0235478 1.1544901 0.89138749 1.0221171999999998 0.8441698000000001 0.7521886999999999 0.77935123 0.68220534 0.80309438 0.49716161 0.62815879 0.66951919 0.71510853 0.66328456 0.3520508 0.45899113 0.70632428 0.60334804 0.35210943 0.23021697 0.3873167 0.27626911 0.41590847 0.61818513 -0.06374357900000001 0.84626844 0.89760666 0.79957922 0.89144874 0.72312945 1.0286766 0.42059035 0.30022362 0.28447616 -0.055718535 0.17362511 -0.07873725 -0.006596848000000001 0.017776906999999998 -0.074981299 0.061268909 -0.096789729 0.037139115 -0.13069912
0.60510941 0.92062107 0.91369914 1.1957627 1.0438361999999999 1.0235478 1.1544901 0.89138749 1.0221171999999998 0.8441698000000001 0.7521886999999999 0.77935123 0.68220534 0.80309438 0.49716161 0.62815879 0.66951919 0.71510853 0.66328456 0.3520508 0.45899113 0.70632428 0.60334804 0.35210943 0.23021697 0.3873167 0.27626911 0.41590847 0.61818513 -0.06374357900000001 0.84626844 0.89760666 0.79957922 0.89144874 0.72312945 1.0286766 0.42059035 0.30022362 0.28447616 -0.055718535 0.17362511 -0.07873725 -0.006596848000000001 0.017776906999999998 -0.074981299 0.061268909 -0.096789729 0.037139115 -0.13069912 -0.07875785
0.92062107 0.91369914 1.1957627 1.0438361999999999 1.0235478 1.1544901 0.89138749 1.0221171999999998 0.8441698000000001 0.7521886999999999 0.77935123 0.68220534 0.80309438 0.49716161 0.62815879 0.66951919 0.71510853 0.66328456 0.3520508 0.45899113 0.70632428 0.60334804 0.35210943 0.23021697 0.3873167 0.27626911 0.41590847 0.61818513 -0.06374357900000001 0.84626844 0.89760666 0.79957922 0.89144874 0.72312945 1.0286766 0.42059035 0.30022362 0.28447616 -0.055718535 0.17362511 -0.07873725 -0.006596848000000001 0.017776906999999998 -0.074981299 0.061268909 -0.096789729 0.037139115 -0.13069912 -0.07875785 0.21742299
0.91369914 1.1957627 1.0438361999999999 1.0235478 1.1544901 0.89138749 1.0221171999999998 0.8441698000000001 0.7521886999999999 0.77935123 0.68220534 0.80309438 0.49716161 0.62815879 0.66951919 0.71510853 0.66328456 0.3520508 0.45899113 0.70632428 0.60334804 0.35210943 0.23021697 0.3873167 0.27626911 0.41590847 0.61818513 -0.06374357900000001 0.84626844 0.89760666 0.79957922 0.89144874 0.72312945 1.0286766 0.42059035 0.30022362 0.28447616 -0.055718535 0.17362511 -0.07873725 -0.006596848000000001 0.017776906999999998 -0.074981299 0.061268909 -0.096789729 0.037139115 -0.13069912 -0.07875785 0.21742299 -0.06345012400000001
1.1957627 1.0438361999999999 1.0235478 1.1544901 0.89138749 1.0221171999999998 0.8441698000000001 0.7521886999999999 0.77935123 0.68220534 0.80309438 0.49716161 0.62815879 0.66951919 0.71510853 0.66328456 0.3520508 0.45899113 0.70632428 0.60334804 0.35210943 0.23021697 0.3873167 0.27626911 0.41590847 0.61818513 -0.06374357900000001 0.84626844 0.89760666 0.79957922 0.89144874 0.72312945 1.0286766 0.42059035 0.30022362 0.28447616 -0.055718535 0.17362511 -0.07873725 -0.006596848000000001 0.017776906999999998 -0.074981299 0.061268909 -0.096789729 0.037139115 -0.13069912 -0.07875785 0.21742299 -0.06345012400000001 -0.053827365
1.0438361999999999 1.0235478 1.1544901 0.89138749 1.0221171999999998 0.8441698000000001 0.7521886999999999 0.77935123 0.68220534 0.80309438 0.49716161 0.62815879 0.66951919 0.71510853 0.66328456 0.3520508 0.45899113 0.70632428 0.60334804 0.35210943 0.23021697 0.3873167 0.27626911 0.41590847 0.61818513 -0.06374357900000001 0.84626844 0.89760666 0.79957922 0.89144874 0.72312945 1.0286766 0.42059035 0.30022362 0.28447616 -0.055718535 0.17362511 -0.07873725 -0.006596848000000001 0.017776906999999998 -0.074981299 0.061268909 -0.096789729 0.037139115 -0.13069912 -0.07875785 0.21742299 -0.06345012400000001 -0.053827365 0.12425291
1.0235478 1.1544901 0.89138749 1.0221171999999998 0.8441698000000001 0.7521886999999999 0.77935123 0.68220534 0.80309438 0.49716161 0.62815879 0.66951919 0.71510853 0.66328456 0.3520508 0.45899113 0.70632428 0.60334804 0.35210943 0.23021697 0.3873167 0.27626911 0.41590847 0.61818513 -0.06374357900000001 0.84626844 0.89760666 0.79957922 0.89144874 0.72312945 1.0286766 0.42059035 0.30022362 0.28447616 -0.055718535 0.17362511 -0.07873725 -0.006596848000000001 0.017776906999999998 -0.074981299 0.061268909 -0.096789729 0.037139115 -0.13069912 -0.07875785 0.21742299 -0.06345012400000001 -0.053827365 0.12425291 0.20686469999999998
