-0.022584247999999998 0.20520995 1.7449143 2.3217103 1.2523879999999998 0.45185648 -0.59501535 -0.10859517 0.53918182 0.23145563 0.25229108 -0.09343996800000001 -0.29337387 -0.9517888000000001 -1.0923964 -1.179427 -1.2756013000000002 -1.3215008 -1.4629290000000001 -1.2618191 -1.3051908 -1.6134563999999998 -1.6115184999999999 -1.5662641000000002 -1.4517008 -1.7714337 -2.0376665000000003 -1.7586721999999997 -1.8883493999999998 -1.7658035 -1.9705345 -2.0275006 -1.8254148000000001 -1.7608529 -1.5130674 -1.4169127000000001 -1.3203423 -0.93720522 -0.60076418 -0.20674610000000002 0.0089491559 0.12270819 0.64379153 0.57088896 0.63745733 0.74980074 0.81657222 0.6982016 0.64807318 0.76961676
0.20520995 1.7449143 2.3217103 1.2523879999999998 0.45185648 -0.59501535 -0.10859517 0.53918182 0.23145563 0.25229108 -0.09343996800000001 -0.29337387 -0.9517888000000001 -1.0923964 -1.179427 -1.2756013000000002 -1.3215008 -1.4629290000000001 -1.2618191 -1.3051908 -1.6134563999999998 -1.6115184999999999 -1.5662641000000002 -1.4517008 -1.7714337 -2.0376665000000003 -1.7586721999999997 -1.8883493999999998 -1.7658035 -1.9705345 -2.0275006 -1.8254148000000001 -1.7608529 -1.5130674 -1.4169127000000001 -1.3203423 -0.93720522 -0.60076418 -0.20674610000000002 0.0089491559 0.12270819 0.64379153 0.57088896 0.63745733 0.74980074 0.81657222 0.6982016 0.64807318 0.76961676 0.76849867
1.7449143 2.3217103 1.2523879999999998 0.45185648 -0.59501535 -0.10859517 0.53918182 0.23145563 0.25229108 -0.09343996800000001 -0.29337387 -0.9517888000000001 -1.0923964 -1.179427 -1.2756013000000002 -1.3215008 -1.4629290000000001 -1.2618191 -1.3051908 -1.6134563999999998 -1.6115184999999999 -1.5662641000000002 -1.4517008 -1.7714337 -2.0376665000000003 -1.7586721999999997 -1.8883493999999998 -1.7658035 -1.9705345 -2.0275006 -1.8254148000000001 -1.7608529 -1.5130674 -1.4169127000000001 -1.3203423 -0.93720522 -0.60076418 -0.20674610000000002 0.0089491559 0.12270819 0.64379153 0.57088896 0.63745733 0.74980074 0.81657222 0.6982016 0.64807318 0.76961676 0.76849867 0.84822455
2.3217103 1.2523879999999998 0.45185648 -0.59501535 -0.10859517 0.53918182 0.23145563 0.25229108 -0.09343996800000001 -0.29337387 -0.9517888000000001 -1.0923964 -1.179427 -1.2756013000000002 -1.3215008 -1.4629290000000001 -1.2618191 -1.3051908 -1.6134563999999998 -1.6115184999999999 -1.5662641000000002 -1.4517008 -1.7714337 -2.0376665000000003 -1.7586721999999997 -1.8883493999999998 -1.7658035 -1.9705345 -2.0275006 -1.8254148000000001 -1.7608529 -1.5130674 -1.4169127000000001 -1.3203423 -0.93720522 -0.60076418 -0.20674610000000002 0.0089491559 0.12270819 0.64379153 0.57088896 0.63745733 0.74980074 0.81657222 0.6982016 0.64807318 0.76961676 0.76849867 0.84822455 0.63313586
1.2523879999999998 0.45185648 -0.59501535 -0.10859517 0.53918182 0.23145563 0.25229108 -0.09343996800000001 -0.29337387 -0.9517888000000001 -1.0923964 -1.179427 -1.2756013000000002 -1.3215008 -1.4629290000000001 -1.2618191 -1.3051908 -1.6134563999999998 -1.6115184999999999 -1.5662641000000002 -1.4517008 -1.7714337 -2.0376665000000003 -1.7586721999999997 -1.8883493999999998 -1.7658035 -1.9705345 -2.0275006 -1.8254148000000001 -1.7608529 -1.5130674 -1.4169127000000001 -1.3203423 -0.93720522 -0.60076418 -0.20674610000000002 0.0089491559 0.12270819 0.64379153 0.57088896 0.63745733 0.74980074 0.81657222 0.6982016 0.64807318 0.76961676 0.76849867 0.84822455 0.63313586 0.65397945
0.45185648 -0.59501535 -0.10859517 0.53918182 0.23145563 0.25229108 -0.09343996800000001 -0.29337387 -0.9517888000000001 -1.0923964 -1.179427 -1.2756013000000002 -1.3215008 -1.4629290000000001 -1.2618191 -1.3051908 -1.6134563999999998 -1.6115184999999999 -1.5662641000000002 -1.4517008 -1.7714337 -2.0376665000000003 -1.7586721999999997 -1.8883493999999998 -1.7658035 -1.9705345 -2.0275006 -1.8254148000000001 -1.7608529 -1.5130674 -1.4169127000000001 -1.3203423 -0.93720522 -0.60076418 -0.20674610000000002 0.0089491559 0.12270819 0.64379153 0.57088896 0.63745733 0.74980074 0.81657222 0.6982016 0.64807318 0.76961676 0.76849867 0.84822455 0.63313586 0.65397945 0.85395141
-0.59501535 -0.10859517 0.53918182 0.23145563 0.25229108 -0.09343996800000001 -0.29337387 -0.9517888000000001 -1.0923964 -1.179427 -1.2756013000000002 -1.3215008 -1.4629290000000001 -1.2618191 -1.3051908 -1.6134563999999998 -1.6115184999999999 -1.5662641000000002 -1.4517008 -1.7714337 -2.0376665000000003 -1.7586721999999997 -1.8883493999999998 -1.7658035 -1.9705345 -2.0275006 -1.8254148000000001 -1.7608529 -1.5130674 -1.4169127000000001 -1.3203423 -0.93720522 -0.60076418 -0.20674610000000002 0.0089491559 0.12270819 0.64379153 0.57088896 0.63745733 0.74980074 0.81657222 0.6982016 0.64807318 0.76961676 0.76849867 0.84822455 0.63313586 0.65397945 0.85395141 0.76330824
-0.10859517 0.53918182 0.23145563 0.25229108 -0.09343996800000001 -0.29337387 -0.9517888000000001 -1.0923964 -1.179427 -1.2756013000000002 -1.3215008 -1.4629290000000001 -1.2618191 -1.3051908 -1.6134563999999998 -1.6115184999999999 -1.5662641000000002 -1.4517008 -1.7714337 -2.0376665000000003 -1.7586721999999997 -1.8883493999999998 -1.7658035 -1.9705345 -2.0275006 -1.8254148000000001 -1.7608529 -1.5130674 -1.4169127000000001 -1.3203423 -0.93720522 -0.60076418 -0.20674610000000002 0.0089491559 0.12270819 0.64379153 0.57088896 0.63745733 0.74980074 0.81657222 0.6982016 0.64807318 0.76961676 0.76849867 0.84822455 0.63313586 0.65397945 0.85395141 0.76330824 0.74111754
0.53918182 0.23145563 0.25229108 -0.09343996800000001 -0.29337387 -0.9517888000000001 -1.0923964 -1.179427 -1.2756013000000002 -1.3215008 -1.4629290000000001 -1.2618191 -1.3051908 -1.6134563999999998 -1.6115184999999999 -1.5662641000000002 -1.4517008 -1.7714337 -2.0376665000000003 -1.7586721999999997 -1.8883493999999998 -1.7658035 -1.9705345 -2.0275006 -1.8254148000000001 -1.7608529 -1.5130674 -1.4169127000000001 -1.3203423 -0.93720522 -0.60076418 -0.20674610000000002 0.0089491559 0.12270819 0.64379153 0.57088896 0.63745733 0.74980074 0.81657222 0.6982016 0.64807318 0.76961676 0.76849867 0.84822455 0.63313586 0.65397945 0.85395141 0.76330824 0.74111754 0.79739505
0.23145563 0.25229108 -0.09343996800000001 -0.29337387 -0.9517888000000001 -1.0923964 -1.179427 -1.2756013000000002 -1.3215008 -1.4629290000000001 -1.2618191 -1.3051908 -1.6134563999999998 -1.6115184999999999 -1.5662641000000002 -1.4517008 -1.7714337 -2.0376665000000003 -1.7586721999999997 -1.8883493999999998 -1.7658035 -1.9705345 -2.0275006 -1.8254148000000001 -1.7608529 -1.5130674 -1.4169127000000001 -1.3203423 -0.93720522 -0.60076418 -0.20674610000000002 0.0089491559 0.12270819 0.64379153 0.57088896 0.63745733 0.74980074 0.81657222 0.6982016 0.64807318 0.76961676 0.76849867 0.84822455 0.63313586 0.65397945 0.85395141 0.76330824 0.74111754 0.79739505 0.84658059
0.25229108 -0.09343996800000001 -0.29337387 -0.9517888000000001 -1.0923964 -1.179427 -1.2756013000000002 -1.3215008 -1.4629290000000001 -1.2618191 -1.3051908 -1.6134563999999998 -1.6115184999999999 -1.5662641000000002 -1.4517008 -1.7714337 -2.0376665000000003 -1.7586721999999997 -1.8883493999999998 -1.7658035 -1.9705345 -2.0275006 -1.8254148000000001 -1.7608529 -1.5130674 -1.4169127000000001 -1.3203423 -0.93720522 -0.60076418 -0.20674610000000002 0.0089491559 0.12270819 0.64379153 0.57088896 0.63745733 0.74980074 0.81657222 0.6982016 0.64807318 0.76961676 0.76849867 0.84822455 0.63313586 0.65397945 0.85395141 0.76330824 0.74111754 0.79739505 0.84658059 0.82337661
-0.09343996800000001 -0.29337387 -0.9517888000000001 -1.0923964 -1.179427 -1.2756013000000002 -1.3215008 -1.4629290000000001 -1.2618191 -1.3051908 -1.6134563999999998 -1.6115184999999999 -1.5662641000000002 -1.4517008 -1.7714337 -2.0376665000000003 -1.7586721999999997 -1.8883493999999998 -1.7658035 -1.9705345 -2.0275006 -1.8254148000000001 -1.7608529 -1.5130674 -1.4169127000000001 -1.3203423 -0.93720522 -0.60076418 -0.20674610000000002 0.0089491559 0.12270819 0.64379153 0.57088896 0.63745733 0.74980074 0.81657222 0.6982016 0.64807318 0.76961676 0.76849867 0.84822455 0.63313586 0.65397945 0.85395141 0.76330824 0.74111754 0.79739505 0.84658059 0.82337661 0.68000357
-0.29337387 -0.9517888000000001 -1.0923964 -1.179427 -1.2756013000000002 -1.3215008 -1.4629290000000001 -1.2618191 -1.3051908 -1.6134563999999998 -1.6115184999999999 -1.5662641000000002 -1.4517008 -1.7714337 -2.0376665000000003 -1.7586721999999997 -1.8883493999999998 -1.7658035 -1.9705345 -2.0275006 -1.8254148000000001 -1.7608529 -1.5130674 -1.4169127000000001 -1.3203423 -0.93720522 -0.60076418 -0.20674610000000002 0.0089491559 0.12270819 0.64379153 0.57088896 0.63745733 0.74980074 0.81657222 0.6982016 0.64807318 0.76961676 0.76849867 0.84822455 0.63313586 0.65397945 0.85395141 0.76330824 0.74111754 0.79739505 0.84658059 0.82337661 0.68000357 0.79463285
-0.9517888000000001 -1.0923964 -1.179427 -1.2756013000000002 -1.3215008 -1.4629290000000001 -1.2618191 -1.3051908 -1.6134563999999998 -1.6115184999999999 -1.5662641000000002 -1.4517008 -1.7714337 -2.0376665000000003 -1.7586721999999997 -1.8883493999999998 -1.7658035 -1.9705345 -2.0275006 -1.8254148000000001 -1.7608529 -1.5130674 -1.4169127000000001 -1.3203423 -0.93720522 -0.60076418 -0.20674610000000002 0.0089491559 0.12270819 0.64379153 0.57088896 0.63745733 0.74980074 0.81657222 0.6982016 0.64807318 0.76961676 0.76849867 0.84822455 0.63313586 0.65397945 0.85395141 0.76330824 0.74111754 0.79739505 0.84658059 0.82337661 0.68000357 0.79463285 0.83236444
-1.0923964 -1.179427 -1.2756013000000002 -1.3215008 -1.4629290000000001 -1.2618191 -1.3051908 -1.6134563999999998 -1.6115184999999999 -1.5662641000000002 -1.4517008 -1.7714337 -2.0376665000000003 -1.7586721999999997 -1.8883493999999998 -1.7658035 -1.9705345 -2.0275006 -1.8254148000000001 -1.7608529 -1.5130674 -1.4169127000000001 -1.3203423 -0.93720522 -0.60076418 -0.20674610000000002 0.0089491559 0.12270819 0.64379153 0.57088896 0.63745733 0.74980074 0.81657222 0.6982016 0.64807318 0.76961676 0.76849867 0.84822455 0.63313586 0.65397945 0.85395141 0.76330824 0.74111754 0.79739505 0.84658059 0.82337661 0.68000357 0.79463285 0.83236444 0.76411454
-1.179427 -1.2756013000000002 -1.3215008 -1.4629290000000001 -1.2618191 -1.3051908 -1.6134563999999998 -1.6115184999999999 -1.5662641000000002 -1.4517008 -1.7714337 -2.0376665000000003 -1.7586721999999997 -1.8883493999999998 -1.7658035 -1.9705345 -2.0275006 -1.8254148000000001 -1.7608529 -1.5130674 -1.4169127000000001 -1.3203423 -0.93720522 -0.60076418 -0.20674610000000002 0.0089491559 0.12270819 0.64379153 0.57088896 0.63745733 0.74980074 0.81657222 0.6982016 0.64807318 0.76961676 0.76849867 0.84822455 0.63313586 0.65397945 0.85395141 0.76330824 0.74111754 0.79739505 0.84658059 0.82337661 0.68000357 0.79463285 0.83236444 0.76411454 0.66606696
-1.2756013000000002 -1.3215008 -1.4629290000000001 -1.2618191 -1.3051908 -1.6134563999999998 -1.6115184999999999 -1.5662641000000002 -1.4517008 -1.7714337 -2.0376665000000003 -1.7586721999999997 -1.8883493999999998 -1.7658035 -1.9705345 -2.0275006 -1.8254148000000001 -1.7608529 -1.5130674 -1.4169127000000001 -1.3203423 -0.93720522 -0.60076418 -0.20674610000000002 0.0089491559 0.12270819 0.64379153 0.57088896 0.63745733 0.74980074 0.81657222 0.6982016 0.64807318 0.76961676 0.76849867 0.84822455 0.63313586 0.65397945 0.85395141 0.76330824 0.74111754 0.79739505 0.84658059 0.82337661 0.68000357 0.79463285 0.83236444 0.76411454 0.66606696 0.72268864
-1.3215008 -1.4629290000000001 -1.2618191 -1.3051908 -1.6134563999999998 -1.6115184999999999 -1.5662641000000002 -1.4517008 -1.7714337 -2.0376665000000003 -1.7586721999999997 -1.8883493999999998 -1.7658035 -1.9705345 -2.0275006 -1.8254148000000001 -1.7608529 -1.5130674 -1.4169127000000001 -1.3203423 -0.93720522 -0.60076418 -0.20674610000000002 0.0089491559 0.12270819 0.64379153 0.57088896 0.63745733 0.74980074 0.81657222 0.6982016 0.64807318 0.76961676 0.76849867 0.84822455 0.63313586 0.65397945 0.85395141 0.76330824 0.74111754 0.79739505 0.84658059 0.82337661 0.68000357 0.79463285 0.83236444 0.76411454 0.66606696 0.72268864 0.78358104
-1.4629290000000001 -1.2618191 -1.3051908 -1.6134563999999998 -1.6115184999999999 -1.5662641000000002 -1.4517008 -1.7714337 -2.0376665000000003 -1.7586721999999997 -1.8883493999999998 -1.7658035 -1.9705345 -2.0275006 -1.8254148000000001 -1.7608529 -1.5130674 -1.4169127000000001 -1.3203423 -0.93720522 -0.60076418 -0.20674610000000002 0.0089491559 0.12270819 0.64379153 0.57088896 0.63745733 0.74980074 0.81657222 0.6982016 0.64807318 0.76961676 0.76849867 0.84822455 0.63313586 0.65397945 0.85395141 0.76330824 0.74111754 0.79739505 0.84658059 0.82337661 0.68000357 0.79463285 0.83236444 0.76411454 0.66606696 0.72268864 0.78358104 0.51354987
-1.2618191 -1.3051908 -1.6134563999999998 -1.6115184999999999 -1.5662641000000002 -1.4517008 -1.7714337 -2.0376665000000003 -1.7586721999999997 -1.8883493999999998 -1.7658035 -1.9705345 -2.0275006 -1.8254148000000001 -1.7608529 -1.5130674 -1.4169127000000001 -1.3203423 -0.93720522 -0.60076418 -0.20674610000000002 0.0089491559 0.12270819 0.64379153 0.57088896 0.63745733 0.74980074 0.81657222 0.6982016 0.64807318 0.76961676 0.76849867 0.84822455 0.63313586 0.65397945 0.85395141 0.76330824 0.74111754 0.79739505 0.84658059 0.82337661 0.68000357 0.79463285 0.83236444 0.76411454 0.66606696 0.72268864 0.78358104 0.51354987 0.62306531
-1.3051908 -1.6134563999999998 -1.6115184999999999 -1.5662641000000002 -1.4517008 -1.7714337 -2.0376665000000003 -1.7586721999999997 -1.8883493999999998 -1.7658035 -1.9705345 -2.0275006 -1.8254148000000001 -1.7608529 -1.5130674 -1.4169127000000001 -1.3203423 -0.93720522 -0.60076418 -0.20674610000000002 0.0089491559 0.12270819 0.64379153 0.57088896 0.63745733 0.74980074 0.81657222 0.6982016 0.64807318 0.76961676 0.76849867 0.84822455 0.63313586 0.65397945 0.85395141 0.76330824 0.74111754 0.79739505 0.84658059 0.82337661 0.68000357 0.79463285 0.83236444 0.76411454 0.66606696 0.72268864 0.78358104 0.51354987 0.62306531 0.61175672
-1.6134563999999998 -1.6115184999999999 -1.5662641000000002 -1.4517008 -1.7714337 -2.0376665000000003 -1.7586721999999997 -1.8883493999999998 -1.7658035 -1.9705345 -2.0275006 -1.8254148000000001 -1.7608529 -1.5130674 -1.4169127000000001 -1.3203423 -0.93720522 -0.60076418 -0.20674610000000002 0.0089491559 0.12270819 0.64379153 0.57088896 0.63745733 0.74980074 0.81657222 0.6982016 0.64807318 0.76961676 0.76849867 0.84822455 0.63313586 0.65397945 0.85395141 0.76330824 0.74111754 0.79739505 0.84658059 0.82337661 0.68000357 0.79463285 0.83236444 0.76411454 0.66606696 0.72268864 0.78358104 0.51354987 0.62306531 0.61175672 0.58927719
-1.6115184999999999 -1.5662641000000002 -1.4517008 -1.7714337 -2.0376665000000003 -1.7586721999999997 -1.8883493999999998 -1.7658035 -1.9705345 -2.0275006 -1.8254148000000001 -1.7608529 -1.5130674 -1.4169127000000001 -1.3203423 -0.93720522 -0.60076418 -0.20674610000000002 0.0089491559 0.12270819 0.64379153 0.57088896 0.63745733 0.74980074 0.81657222 0.6982016 0.64807318 0.76961676 0.76849867 0.84822455 0.63313586 0.65397945 0.85395141 0.76330824 0.74111754 0.79739505 0.84658059 0.82337661 0.68000357 0.79463285 0.83236444 0.76411454 0.66606696 0.72268864 0.78358104 0.51354987 0.62306531 0.61175672 0.58927719 0.68037148
-1.5662641000000002 -1.4517008 -1.7714337 -2.0376665000000003 -1.7586721999999997 -1.8883493999999998 -1.7658035 -1.9705345 -2.0275006 -1.8254148000000001 -1.7608529 -1.5130674 -1.4169127000000001 -1.3203423 -0.93720522 -0.60076418 -0.20674610000000002 0.0089491559 0.12270819 0.64379153 0.57088896 0.63745733 0.74980074 0.81657222 0.6982016 0.64807318 0.76961676 0.76849867 0.84822455 0.63313586 0.65397945 0.85395141 0.76330824 0.74111754 0.79739505 0.84658059 0.82337661 0.68000357 0.79463285 0.83236444 0.76411454 0.66606696 0.72268864 0.78358104 0.51354987 0.62306531 0.61175672 0.58927719 0.68037148 0.60237733
-1.4517008 -1.7714337 -2.0376665000000003 -1.7586721999999997 -1.8883493999999998 -1.7658035 -1.9705345 -2.0275006 -1.8254148000000001 -1.7608529 -1.5130674 -1.4169127000000001 -1.3203423 -0.93720522 -0.60076418 -0.20674610000000002 0.0089491559 0.12270819 0.64379153 0.57088896 0.63745733 0.74980074 0.81657222 0.6982016 0.64807318 0.76961676 0.76849867 0.84822455 0.63313586 0.65397945 0.85395141 0.76330824 0.74111754 0.79739505 0.84658059 0.82337661 0.68000357 0.79463285 0.83236444 0.76411454 0.66606696 0.72268864 0.78358104 0.51354987 0.62306531 0.61175672 0.58927719 0.68037148 0.60237733 0.76897688
-1.7714337 -2.0376665000000003 -1.7586721999999997 -1.8883493999999998 -1.7658035 -1.9705345 -2.0275006 -1.8254148000000001 -1.7608529 -1.5130674 -1.4169127000000001 -1.3203423 -0.93720522 -0.60076418 -0.20674610000000002 0.0089491559 0.12270819 0.64379153 0.57088896 0.63745733 0.74980074 0.81657222 0.6982016 0.64807318 0.76961676 0.76849867 0.84822455 0.63313586 0.65397945 0.85395141 0.76330824 0.74111754 0.79739505 0.84658059 0.82337661 0.68000357 0.79463285 0.83236444 0.76411454 0.66606696 0.72268864 0.78358104 0.51354987 0.62306531 0.61175672 0.58927719 0.68037148 0.60237733 0.76897688 0.98697875
-2.0376665000000003 -1.7586721999999997 -1.8883493999999998 -1.7658035 -1.9705345 -2.0275006 -1.8254148000000001 -1.7608529 -1.5130674 -1.4169127000000001 -1.3203423 -0.93720522 -0.60076418 -0.20674610000000002 0.0089491559 0.12270819 0.64379153 0.57088896 0.63745733 0.74980074 0.81657222 0.6982016 0.64807318 0.76961676 0.76849867 0.84822455 0.63313586 0.65397945 0.85395141 0.76330824 0.74111754 0.79739505 0.84658059 0.82337661 0.68000357 0.79463285 0.83236444 0.76411454 0.66606696 0.72268864 0.78358104 0.51354987 0.62306531 0.61175672 0.58927719 0.68037148 0.60237733 0.76897688 0.98697875 1.0081204
-1.7586721999999997 -1.8883493999999998 -1.7658035 -1.9705345 -2.0275006 -1.8254148000000001 -1.7608529 -1.5130674 -1.4169127000000001 -1.3203423 -0.93720522 -0.60076418 -0.20674610000000002 0.0089491559 0.12270819 0.64379153 0.57088896 0.63745733 0.74980074 0.81657222 0.6982016 0.64807318 0.76961676 0.76849867 0.84822455 0.63313586 0.65397945 0.85395141 0.76330824 0.74111754 0.79739505 0.84658059 0.82337661 0.68000357 0.79463285 0.83236444 0.76411454 0.66606696 0.72268864 0.78358104 0.51354987 0.62306531 0.61175672 0.58927719 0.68037148 0.60237733 0.76897688 0.98697875 1.0081204 1.0314917
-1.8883493999999998 -1.7658035 -1.9705345 -2.0275006 -1.8254148000000001 -1.7608529 -1.5130674 -1.4169127000000001 -1.3203423 -0.93720522 -0.60076418 -0.20674610000000002 0.0089491559 0.12270819 0.64379153 0.57088896 0.63745733 0.74980074 0.81657222 0.6982016 0.64807318 0.76961676 0.76849867 0.84822455 0.63313586 0.65397945 0.85395141 0.76330824 0.74111754 0.79739505 0.84658059 0.82337661 0.68000357 0.79463285 0.83236444 0.76411454 0.66606696 0.72268864 0.78358104 0.51354987 0.62306531 0.61175672 0.58927719 0.68037148 0.60237733 0.76897688 0.98697875 1.0081204 1.0314917 0.84182237
-1.7658035 -1.9705345 -2.0275006 -1.8254148000000001 -1.7608529 -1.5130674 -1.4169127000000001 -1.3203423 -0.93720522 -0.60076418 -0.20674610000000002 0.0089491559 0.12270819 0.64379153 0.57088896 0.63745733 0.74980074 0.81657222 0.6982016 0.64807318 0.76961676 0.76849867 0.84822455 0.63313586 0.65397945 0.85395141 0.76330824 0.74111754 0.79739505 0.84658059 0.82337661 0.68000357 0.79463285 0.83236444 0.76411454 0.66606696 0.72268864 0.78358104 0.51354987 0.62306531 0.61175672 0.58927719 0.68037148 0.60237733 0.76897688 0.98697875 1.0081204 1.0314917 0.84182237 0.69312463
-1.9705345 -2.0275006 -1.8254148000000001 -1.7608529 -1.5130674 -1.4169127000000001 -1.3203423 -0.93720522 -0.60076418 -0.20674610000000002 0.0089491559 0.12270819 0.64379153 0.57088896 0.63745733 0.74980074 0.81657222 0.6982016 0.64807318 0.76961676 0.76849867 0.84822455 0.63313586 0.65397945 0.85395141 0.76330824 0.74111754 0.79739505 0.84658059 0.82337661 0.68000357 0.79463285 0.83236444 0.76411454 0.66606696 0.72268864 0.78358104 0.51354987 0.62306531 0.61175672 0.58927719 0.68037148 0.60237733 0.76897688 0.98697875 1.0081204 1.0314917 0.84182237 0.69312463 0.68368051
-2.0275006 -1.8254148000000001 -1.7608529 -1.5130674 -1.4169127000000001 -1.3203423 -0.93720522 -0.60076418 -0.20674610000000002 0.0089491559 0.12270819 0.64379153 0.57088896 0.63745733 0.74980074 0.81657222 0.6982016 0.64807318 0.76961676 0.76849867 0.84822455 0.63313586 0.65397945 0.85395141 0.76330824 0.74111754 0.79739505 0.84658059 0.82337661 0.68000357 0.79463285 0.83236444 0.76411454 0.66606696 0.72268864 0.78358104 0.51354987 0.62306531 0.61175672 0.58927719 0.68037148 0.60237733 0.76897688 0.98697875 1.0081204 1.0314917 0.84182237 0.69312463 0.68368051 0.56372119
-1.8254148000000001 -1.7608529 -1.5130674 -1.4169127000000001 -1.3203423 -0.93720522 -0.60076418 -0.20674610000000002 0.0089491559 0.12270819 0.64379153 0.57088896 0.63745733 0.74980074 0.81657222 0.6982016 0.64807318 0.76961676 0.76849867 0.84822455 0.63313586 0.65397945 0.85395141 0.76330824 0.74111754 0.79739505 0.84658059 0.82337661 0.68000357 0.79463285 0.83236444 0.76411454 0.66606696 0.72268864 0.78358104 0.51354987 0.62306531 0.61175672 0.58927719 0.68037148 0.60237733 0.76897688 0.98697875 1.0081204 1.0314917 0.84182237 0.69312463 0.68368051 0.56372119 0.43863922
-1.7608529 -1.5130674 -1.4169127000000001 -1.3203423 -0.93720522 -0.60076418 -0.20674610000000002 0.0089491559 0.12270819 0.64379153 0.57088896 0.63745733 0.74980074 0.81657222 0.6982016 0.64807318 0.76961676 0.76849867 0.84822455 0.63313586 0.65397945 0.85395141 0.76330824 0.74111754 0.79739505 0.84658059 0.82337661 0.68000357 0.79463285 0.83236444 0.76411454 0.66606696 0.72268864 0.78358104 0.51354987 0.62306531 0.61175672 0.58927719 0.68037148 0.60237733 0.76897688 0.98697875 1.0081204 1.0314917 0.84182237 0.69312463 0.68368051 0.56372119 0.43863922 0.39072451
-1.5130674 -1.4169127000000001 -1.3203423 -0.93720522 -0.60076418 -0.20674610000000002 0.0089491559 0.12270819 0.64379153 0.57088896 0.63745733 0.74980074 0.81657222 0.6982016 0.64807318 0.76961676 0.76849867 0.84822455 0.63313586 0.65397945 0.85395141 0.76330824 0.74111754 0.79739505 0.84658059 0.82337661 0.68000357 0.79463285 0.83236444 0.76411454 0.66606696 0.72268864 0.78358104 0.51354987 0.62306531 0.61175672 0.58927719 0.68037148 0.60237733 0.76897688 0.98697875 1.0081204 1.0314917 0.84182237 0.69312463 0.68368051 0.56372119 0.43863922 0.39072451 0.4166316
-1.4169127000000001 -1.3203423 -0.93720522 -0.60076418 -0.20674610000000002 0.0089491559 0.12270819 0.64379153 0.57088896 0.63745733 0.74980074 0.81657222 0.6982016 0.64807318 0.76961676 0.76849867 0.84822455 0.63313586 0.65397945 0.85395141 0.76330824 0.74111754 0.79739505 0.84658059 0.82337661 0.68000357 0.79463285 0.83236444 0.76411454 0.66606696 0.72268864 0.78358104 0.51354987 0.62306531 0.61175672 0.58927719 0.68037148 0.60237733 0.76897688 0.98697875 1.0081204 1.0314917 0.84182237 0.69312463 0.68368051 0.56372119 0.43863922 0.39072451 0.4166316 0.24158965
-1.3203423 -0.93720522 -0.60076418 -0.20674610000000002 0.0089491559 0.12270819 0.64379153 0.57088896 0.63745733 0.74980074 0.81657222 0.6982016 0.64807318 0.76961676 0.76849867 0.84822455 0.63313586 0.65397945 0.85395141 0.76330824 0.74111754 0.79739505 0.84658059 0.82337661 0.68000357 0.79463285 0.83236444 0.76411454 0.66606696 0.72268864 0.78358104 0.51354987 0.62306531 0.61175672 0.58927719 0.68037148 0.60237733 0.76897688 0.98697875 1.0081204 1.0314917 0.84182237 0.69312463 0.68368051 0.56372119 0.43863922 0.39072451 0.4166316 0.24158965 0.27061807
-0.93720522 -0.60076418 -0.20674610000000002 0.0089491559 0.12270819 0.64379153 0.57088896 0.63745733 0.74980074 0.81657222 0.6982016 0.64807318 0.76961676 0.76849867 0.84822455 0.63313586 0.65397945 0.85395141 0.76330824 0.74111754 0.79739505 0.84658059 0.82337661 0.68000357 0.79463285 0.83236444 0.76411454 0.66606696 0.72268864 0.78358104 0.51354987 0.62306531 0.61175672 0.58927719 0.68037148 0.60237733 0.76897688 0.98697875 1.0081204 1.0314917 0.84182237 0.69312463 0.68368051 0.56372119 0.43863922 0.39072451 0.4166316 0.24158965 0.27061807 0.33426153
-0.60076418 -0.20674610000000002 0.0089491559 0.12270819 0.64379153 0.57088896 0.63745733 0.74980074 0.81657222 0.6982016 0.64807318 0.76961676 0.76849867 0.84822455 0.63313586 0.65397945 0.85395141 0.76330824 0.74111754 0.79739505 0.84658059 0.82337661 0.68000357 0.79463285 0.83236444 0.76411454 0.66606696 0.72268864 0.78358104 0.51354987 0.62306531 0.61175672 0.58927719 0.68037148 0.60237733 0.76897688 0.98697875 1.0081204 1.0314917 0.84182237 0.69312463 0.68368051 0.56372119 0.43863922 0.39072451 0.4166316 0.24158965 0.27061807 0.33426153 0.24864997
-0.20674610000000002 0.0089491559 0.12270819 0.64379153 0.57088896 0.63745733 0.74980074 0.81657222 0.6982016 0.64807318 0.76961676 0.76849867 0.84822455 0.63313586 0.65397945 0.85395141 0.76330824 0.74111754 0.79739505 0.84658059 0.82337661 0.68000357 0.79463285 0.83236444 0.76411454 0.66606696 0.72268864 0.78358104 0.51354987 0.62306531 0.61175672 0.58927719 0.68037148 0.60237733 0.76897688 0.98697875 1.0081204 1.0314917 0.84182237 0.69312463 0.68368051 0.56372119 0.43863922 0.39072451 0.4166316 0.24158965 0.27061807 0.33426153 0.24864997 0.39521923
0.0089491559 0.12270819 0.64379153 0.57088896 0.63745733 0.74980074 0.81657222 0.6982016 0.64807318 0.76961676 0.76849867 0.84822455 0.63313586 0.65397945 0.85395141 0.76330824 0.74111754 0.79739505 0.84658059 0.82337661 0.68000357 0.79463285 0.83236444 0.76411454 0.66606696 0.72268864 0.78358104 0.51354987 0.62306531 0.61175672 0.58927719 0.68037148 0.60237733 0.76897688 0.98697875 1.0081204 1.0314917 0.84182237 0.69312463 0.68368051 0.56372119 0.43863922 0.39072451 0.4166316 0.24158965 0.27061807 0.33426153 0.24864997 0.39521923 0.32683218
0.12270819 0.64379153 0.57088896 0.63745733 0.74980074 0.81657222 0.6982016 0.64807318 0.76961676 0.76849867 0.84822455 0.63313586 0.65397945 0.85395141 0.76330824 0.74111754 0.79739505 0.84658059 0.82337661 0.68000357 0.79463285 0.83236444 0.76411454 0.66606696 0.72268864 0.78358104 0.51354987 0.62306531 0.61175672 0.58927719 0.68037148 0.60237733 0.76897688 0.98697875 1.0081204 1.0314917 0.84182237 0.69312463 0.68368051 0.56372119 0.43863922 0.39072451 0.4166316 0.24158965 0.27061807 0.33426153 0.24864997 0.39521923 0.32683218 0.08514604
0.64379153 0.57088896 0.63745733 0.74980074 0.81657222 0.6982016 0.64807318 0.76961676 0.76849867 0.84822455 0.63313586 0.65397945 0.85395141 0.76330824 0.74111754 0.79739505 0.84658059 0.82337661 0.68000357 0.79463285 0.83236444 0.76411454 0.66606696 0.72268864 0.78358104 0.51354987 0.62306531 0.61175672 0.58927719 0.68037148 0.60237733 0.76897688 0.98697875 1.0081204 1.0314917 0.84182237 0.69312463 0.68368051 0.56372119 0.43863922 0.39072451 0.4166316 0.24158965 0.27061807 0.33426153 0.24864997 0.39521923 0.32683218 0.08514604 0.15681753
0.57088896 0.63745733 0.74980074 0.81657222 0.6982016 0.64807318 0.76961676 0.76849867 0.84822455 0.63313586 0.65397945 0.85395141 0.76330824 0.74111754 0.79739505 0.84658059 0.82337661 0.68000357 0.79463285 0.83236444 0.76411454 0.66606696 0.72268864 0.78358104 0.51354987 0.62306531 0.61175672 0.58927719 0.68037148 0.60237733 0.76897688 0.98697875 1.0081204 1.0314917 0.84182237 0.69312463 0.68368051 0.56372119 0.43863922 0.39072451 0.4166316 0.24158965 0.27061807 0.33426153 0.24864997 0.39521923 0.32683218 0.08514604 0.15681753 0.26549078
0.63745733 0.74980074 0.81657222 0.6982016 0.64807318 0.76961676 0.76849867 0.84822455 0.63313586 0.65397945 0.85395141 0.76330824 0.74111754 0.79739505 0.84658059 0.82337661 0.68000357 0.79463285 0.83236444 0.76411454 0.66606696 0.72268864 0.78358104 0.51354987 0.62306531 0.61175672 0.58927719 0.68037148 0.60237733 0.76897688 0.98697875 1.0081204 1.0314917 0.84182237 0.69312463 0.68368051 0.56372119 0.43863922 0.39072451 0.4166316 0.24158965 0.27061807 0.33426153 0.24864997 0.39521923 0.32683218 0.08514604 0.15681753 0.26549078 0.15786587
0.74980074 0.81657222 0.6982016 0.64807318 0.76961676 0.76849867 0.84822455 0.63313586 0.65397945 0.85395141 0.76330824 0.74111754 0.79739505 0.84658059 0.82337661 0.68000357 0.79463285 0.83236444 0.76411454 0.66606696 0.72268864 0.78358104 0.51354987 0.62306531 0.61175672 0.58927719 0.68037148 0.60237733 0.76897688 0.98697875 1.0081204 1.0314917 0.84182237 0.69312463 0.68368051 0.56372119 0.43863922 0.39072451 0.4166316 0.24158965 0.27061807 0.33426153 0.24864997 0.39521923 0.32683218 0.08514604 0.15681753 0.26549078 0.15786587 0.1896707
0.81657222 0.6982016 0.64807318 0.76961676 0.76849867 0.84822455 0.63313586 0.65397945 0.85395141 0.76330824 0.74111754 0.79739505 0.84658059 0.82337661 0.68000357 0.79463285 0.83236444 0.76411454 0.66606696 0.72268864 0.78358104 0.51354987 0.62306531 0.61175672 0.58927719 0.68037148 0.60237733 0.76897688 0.98697875 1.0081204 1.0314917 0.84182237 0.69312463 0.68368051 0.56372119 0.43863922 0.39072451 0.4166316 0.24158965 0.27061807 0.33426153 0.24864997 0.39521923 0.32683218 0.08514604 0.15681753 0.26549078 0.15786587 0.1896707 0.25330914
