0.18753379 -0.27663761 -0.30880471 -0.27084334 -0.73064539 -0.17869549999999998 -0.40416399 -1.3154284 -1.04931 -1.1725143 -1.2252638999999999 -1.2664036 -1.5779631 -1.5186608 -1.6223793 -1.7890883000000002 -1.6733497 -1.958582 -2.1708271 -1.8937701 -2.1184859 -2.1488523999999996 -2.0920793 -1.9171793000000001 -1.3793674999999999 -1.3947797 -1.2245431 -0.70368214 -0.51579361 -0.37018611 -0.0079399061 -0.060596143 0.049118471 0.24305585 0.17958929999999998 0.37773484 0.13241327 0.12277799 0.58685644 0.434799 0.27736456 0.39086427 0.42753240000000003 0.54130425 0.56743513 0.6340361 0.6102504 0.60248655 0.50072533 0.60955938
-0.27663761 -0.30880471 -0.27084334 -0.73064539 -0.17869549999999998 -0.40416399 -1.3154284 -1.04931 -1.1725143 -1.2252638999999999 -1.2664036 -1.5779631 -1.5186608 -1.6223793 -1.7890883000000002 -1.6733497 -1.958582 -2.1708271 -1.8937701 -2.1184859 -2.1488523999999996 -2.0920793 -1.9171793000000001 -1.3793674999999999 -1.3947797 -1.2245431 -0.70368214 -0.51579361 -0.37018611 -0.0079399061 -0.060596143 0.049118471 0.24305585 0.17958929999999998 0.37773484 0.13241327 0.12277799 0.58685644 0.434799 0.27736456 0.39086427 0.42753240000000003 0.54130425 0.56743513 0.6340361 0.6102504 0.60248655 0.50072533 0.60955938 0.71631595
-0.30880471 -0.27084334 -0.73064539 -0.17869549999999998 -0.40416399 -1.3154284 -1.04931 -1.1725143 -1.2252638999999999 -1.2664036 -1.5779631 -1.5186608 -1.6223793 -1.7890883000000002 -1.6733497 -1.958582 -2.1708271 -1.8937701 -2.1184859 -2.1488523999999996 -2.0920793 -1.9171793000000001 -1.3793674999999999 -1.3947797 -1.2245431 -0.70368214 -0.51579361 -0.37018611 -0.0079399061 -0.060596143 0.049118471 0.24305585 0.17958929999999998 0.37773484 0.13241327 0.12277799 0.58685644 0.434799 0.27736456 0.39086427 0.42753240000000003 0.54130425 0.56743513 0.6340361 0.6102504 0.60248655 0.50072533 0.60955938 0.71631595 0.66526458
-0.27084334 -0.73064539 -0.17869549999999998 -0.40416399 -1.3154284 -1.04931 -1.1725143 -1.2252638999999999 -1.2664036 -1.5779631 -1.5186608 -1.6223793 -1.7890883000000002 -1.6733497 -1.958582 -2.1708271 -1.8937701 -2.1184859 -2.1488523999999996 -2.0920793 -1.9171793000000001 -1.3793674999999999 -1.3947797 -1.2245431 -0.70368214 -0.51579361 -0.37018611 -0.0079399061 -0.060596143 0.049118471 0.24305585 0.17958929999999998 0.37773484 0.13241327 0.12277799 0.58685644 0.434799 0.27736456 0.39086427 0.42753240000000003 0.54130425 0.56743513 0.6340361 0.6102504 0.60248655 0.50072533 0.60955938 0.71631595 0.66526458 0.70036838
-0.73064539 -0.17869549999999998 -0.40416399 -1.3154284 -1.04931 -1.1725143 -1.2252638999999999 -1.2664036 -1.5779631 -1.5186608 -1.6223793 -1.7890883000000002 -1.6733497 -1.958582 -2.1708271 -1.8937701 -2.1184859 -2.1488523999999996 -2.0920793 -1.9171793000000001 -1.3793674999999999 -1.3947797 -1.2245431 -0.70368214 -0.51579361 -0.37018611 -0.0079399061 -0.060596143 0.049118471 0.24305585 0.17958929999999998 0.37773484 0.13241327 0.12277799 0.58685644 0.434799 0.27736456 0.39086427 0.42753240000000003 0.54130425 0.56743513 0.6340361 0.6102504 0.60248655 0.50072533 0.60955938 0.71631595 0.66526458 0.70036838 0.34767801
-0.17869549999999998 -0.40416399 -1.3154284 -1.04931 -1.1725143 -1.2252638999999999 -1.2664036 -1.5779631 -1.5186608 -1.6223793 -1.7890883000000002 -1.6733497 -1.958582 -2.1708271 -1.8937701 -2.1184859 -2.1488523999999996 -2.0920793 -1.9171793000000001 -1.3793674999999999 -1.3947797 -1.2245431 -0.70368214 -0.51579361 -0.37018611 -0.0079399061 -0.060596143 0.049118471 0.24305585 0.17958929999999998 0.37773484 0.13241327 0.12277799 0.58685644 0.434799 0.27736456 0.39086427 0.42753240000000003 0.54130425 0.56743513 0.6340361 0.6102504 0.60248655 0.50072533 0.60955938 0.71631595 0.66526458 0.70036838 0.34767801 0.45850724
-0.40416399 -1.3154284 -1.04931 -1.1725143 -1.2252638999999999 -1.2664036 -1.5779631 -1.5186608 -1.6223793 -1.7890883000000002 -1.6733497 -1.958582 -2.1708271 -1.8937701 -2.1184859 -2.1488523999999996 -2.0920793 -1.9171793000000001 -1.3793674999999999 -1.3947797 -1.2245431 -0.70368214 -0.51579361 -0.37018611 -0.0079399061 -0.060596143 0.049118471 0.24305585 0.17958929999999998 0.37773484 0.13241327 0.12277799 0.58685644 0.434799 0.27736456 0.39086427 0.42753240000000003 0.54130425 0.56743513 0.6340361 0.6102504 0.60248655 0.50072533 0.60955938 0.71631595 0.66526458 0.70036838 0.34767801 0.45850724 0.73903774
-1.3154284 -1.04931 -1.1725143 -1.2252638999999999 -1.2664036 -1.5779631 -1.5186608 -1.6223793 -1.7890883000000002 -1.6733497 -1.958582 -2.1708271 -1.8937701 -2.1184859 -2.1488523999999996 -2.0920793 -1.9171793000000001 -1.3793674999999999 -1.3947797 -1.2245431 -0.70368214 -0.51579361 -0.37018611 -0.0079399061 -0.060596143 0.049118471 0.24305585 0.17958929999999998 0.37773484 0.13241327 0.12277799 0.58685644 0.434799 0.27736456 0.39086427 0.42753240000000003 0.54130425 0.56743513 0.6340361 0.6102504 0.60248655 0.50072533 0.60955938 0.71631595 0.66526458 0.70036838 0.34767801 0.45850724 0.73903774 0.52361666
-1.04931 -1.1725143 -1.2252638999999999 -1.2664036 -1.5779631 -1.5186608 -1.6223793 -1.7890883000000002 -1.6733497 -1.958582 -2.1708271 -1.8937701 -2.1184859 -2.1488523999999996 -2.0920793 -1.9171793000000001 -1.3793674999999999 -1.3947797 -1.2245431 -0.70368214 -0.51579361 -0.37018611 -0.0079399061 -0.060596143 0.049118471 0.24305585 0.17958929999999998 0.37773484 0.13241327 0.12277799 0.58685644 0.434799 0.27736456 0.39086427 0.42753240000000003 0.54130425 0.56743513 0.6340361 0.6102504 0.60248655 0.50072533 0.60955938 0.71631595 0.66526458 0.70036838 0.34767801 0.45850724 0.73903774 0.52361666 0.51508335
-1.1725143 -1.2252638999999999 -1.2664036 -1.5779631 -1.5186608 -1.6223793 -1.7890883000000002 -1.6733497 -1.958582 -2.1708271 -1.8937701 -2.1184859 -2.1488523999999996 -2.0920793 -1.9171793000000001 -1.3793674999999999 -1.3947797 -1.2245431 -0.70368214 -0.51579361 -0.37018611 -0.0079399061 -0.060596143 0.049118471 0.24305585 0.17958929999999998 0.37773484 0.13241327 0.12277799 0.58685644 0.434799 0.27736456 0.39086427 0.42753240000000003 0.54130425 0.56743513 0.6340361 0.6102504 0.60248655 0.50072533 0.60955938 0.71631595 0.66526458 0.70036838 0.34767801 0.45850724 0.73903774 0.52361666 0.51508335 0.41768627
-1.2252638999999999 -1.2664036 -1.5779631 -1.5186608 -1.6223793 -1.7890883000000002 -1.6733497 -1.958582 -2.1708271 -1.8937701 -2.1184859 -2.1488523999999996 -2.0920793 -1.9171793000000001 -1.3793674999999999 -1.3947797 -1.2245431 -0.70368214 -0.51579361 -0.37018611 -0.0079399061 -0.060596143 0.049118471 0.24305585 0.17958929999999998 0.37773484 0.13241327 0.12277799 0.58685644 0.434799 0.27736456 0.39086427 0.42753240000000003 0.54130425 0.56743513 0.6340361 0.6102504 0.60248655 0.50072533 0.60955938 0.71631595 0.66526458 0.70036838 0.34767801 0.45850724 0.73903774 0.52361666 0.51508335 0.41768627 0.30199525
-1.2664036 -1.5779631 -1.5186608 -1.6223793 -1.7890883000000002 -1.6733497 -1.958582 -2.1708271 -1.8937701 -2.1184859 -2.1488523999999996 -2.0920793 -1.9171793000000001 -1.3793674999999999 -1.3947797 -1.2245431 -0.70368214 -0.51579361 -0.37018611 -0.0079399061 -0.060596143 0.049118471 0.24305585 0.17958929999999998 0.37773484 0.13241327 0.12277799 0.58685644 0.434799 0.27736456 0.39086427 0.42753240000000003 0.54130425 0.56743513 0.6340361 0.6102504 0.60248655 0.50072533 0.60955938 0.71631595 0.66526458 0.70036838 0.34767801 0.45850724 0.73903774 0.52361666 0.51508335 0.41768627 0.30199525 0.45724703
-1.5779631 -1.5186608 -1.6223793 -1.7890883000000002 -1.6733497 -1.958582 -2.1708271 -1.8937701 -2.1184859 -2.1488523999999996 -2.0920793 -1.9171793000000001 -1.3793674999999999 -1.3947797 -1.2245431 -0.70368214 -0.51579361 -0.37018611 -0.0079399061 -0.060596143 0.049118471 0.24305585 0.17958929999999998 0.37773484 0.13241327 0.12277799 0.58685644 0.434799 0.27736456 0.39086427 0.42753240000000003 0.54130425 0.56743513 0.6340361 0.6102504 0.60248655 0.50072533 0.60955938 0.71631595 0.66526458 0.70036838 0.34767801 0.45850724 0.73903774 0.52361666 0.51508335 0.41768627 0.30199525 0.45724703 0.28859309999999994
-1.5186608 -1.6223793 -1.7890883000000002 -1.6733497 -1.958582 -2.1708271 -1.8937701 -2.1184859 -2.1488523999999996 -2.0920793 -1.9171793000000001 -1.3793674999999999 -1.3947797 -1.2245431 -0.70368214 -0.51579361 -0.37018611 -0.0079399061 -0.060596143 0.049118471 0.24305585 0.17958929999999998 0.37773484 0.13241327 0.12277799 0.58685644 0.434799 0.27736456 0.39086427 0.42753240000000003 0.54130425 0.56743513 0.6340361 0.6102504 0.60248655 0.50072533 0.60955938 0.71631595 0.66526458 0.70036838 0.34767801 0.45850724 0.73903774 0.52361666 0.51508335 0.41768627 0.30199525 0.45724703 0.28859309999999994 0.15256262
-1.6223793 -1.7890883000000002 -1.6733497 -1.958582 -2.1708271 -1.8937701 -2.1184859 -2.1488523999999996 -2.0920793 -1.9171793000000001 -1.3793674999999999 -1.3947797 -1.2245431 -0.70368214 -0.51579361 -0.37018611 -0.0079399061 -0.060596143 0.049118471 0.24305585 0.17958929999999998 0.37773484 0.13241327 0.12277799 0.58685644 0.434799 0.27736456 0.39086427 0.42753240000000003 0.54130425 0.56743513 0.6340361 0.6102504 0.60248655 0.50072533 0.60955938 0.71631595 0.66526458 0.70036838 0.34767801 0.45850724 0.73903774 0.52361666 0.51508335 0.41768627 0.30199525 0.45724703 0.28859309999999994 0.15256262 0.16566068
-1.7890883000000002 -1.6733497 -1.958582 -2.1708271 -1.8937701 -2.1184859 -2.1488523999999996 -2.0920793 -1.9171793000000001 -1.3793674999999999 -1.3947797 -1.2245431 -0.70368214 -0.51579361 -0.37018611 -0.0079399061 -0.060596143 0.049118471 0.24305585 0.17958929999999998 0.37773484 0.13241327 0.12277799 0.58685644 0.434799 0.27736456 0.39086427 0.42753240000000003 0.54130425 0.56743513 0.6340361 0.6102504 0.60248655 0.50072533 0.60955938 0.71631595 0.66526458 0.70036838 0.34767801 0.45850724 0.73903774 0.52361666 0.51508335 0.41768627 0.30199525 0.45724703 0.28859309999999994 0.15256262 0.16566068 0.22198896
-1.6733497 -1.958582 -2.1708271 -1.8937701 -2.1184859 -2.1488523999999996 -2.0920793 -1.9171793000000001 -1.3793674999999999 -1.3947797 -1.2245431 -0.70368214 -0.51579361 -0.37018611 -0.0079399061 -0.060596143 0.049118471 0.24305585 0.17958929999999998 0.37773484 0.13241327 0.12277799 0.58685644 0.434799 0.27736456 0.39086427 0.42753240000000003 0.54130425 0.56743513 0.6340361 0.6102504 0.60248655 0.50072533 0.60955938 0.71631595 0.66526458 0.70036838 0.34767801 0.45850724 0.73903774 0.52361666 0.51508335 0.41768627 0.30199525 0.45724703 0.28859309999999994 0.15256262 0.16566068 0.22198896 0.35536341
-1.958582 -2.1708271 -1.8937701 -2.1184859 -2.1488523999999996 -2.0920793 -1.9171793000000001 -1.3793674999999999 -1.3947797 -1.2245431 -0.70368214 -0.51579361 -0.37018611 -0.0079399061 -0.060596143 0.049118471 0.24305585 0.17958929999999998 0.37773484 0.13241327 0.12277799 0.58685644 0.434799 0.27736456 0.39086427 0.42753240000000003 0.54130425 0.56743513 0.6340361 0.6102504 0.60248655 0.50072533 0.60955938 0.71631595 0.66526458 0.70036838 0.34767801 0.45850724 0.73903774 0.52361666 0.51508335 0.41768627 0.30199525 0.45724703 0.28859309999999994 0.15256262 0.16566068 0.22198896 0.35536341 0.35025602
-2.1708271 -1.8937701 -2.1184859 -2.1488523999999996 -2.0920793 -1.9171793000000001 -1.3793674999999999 -1.3947797 -1.2245431 -0.70368214 -0.51579361 -0.37018611 -0.0079399061 -0.060596143 0.049118471 0.24305585 0.17958929999999998 0.37773484 0.13241327 0.12277799 0.58685644 0.434799 0.27736456 0.39086427 0.42753240000000003 0.54130425 0.56743513 0.6340361 0.6102504 0.60248655 0.50072533 0.60955938 0.71631595 0.66526458 0.70036838 0.34767801 0.45850724 0.73903774 0.52361666 0.51508335 0.41768627 0.30199525 0.45724703 0.28859309999999994 0.15256262 0.16566068 0.22198896 0.35536341 0.35025602 0.23771197
-1.8937701 -2.1184859 -2.1488523999999996 -2.0920793 -1.9171793000000001 -1.3793674999999999 -1.3947797 -1.2245431 -0.70368214 -0.51579361 -0.37018611 -0.0079399061 -0.060596143 0.049118471 0.24305585 0.17958929999999998 0.37773484 0.13241327 0.12277799 0.58685644 0.434799 0.27736456 0.39086427 0.42753240000000003 0.54130425 0.56743513 0.6340361 0.6102504 0.60248655 0.50072533 0.60955938 0.71631595 0.66526458 0.70036838 0.34767801 0.45850724 0.73903774 0.52361666 0.51508335 0.41768627 0.30199525 0.45724703 0.28859309999999994 0.15256262 0.16566068 0.22198896 0.35536341 0.35025602 0.23771197 0.29322718
-2.1184859 -2.1488523999999996 -2.0920793 -1.9171793000000001 -1.3793674999999999 -1.3947797 -1.2245431 -0.70368214 -0.51579361 -0.37018611 -0.0079399061 -0.060596143 0.049118471 0.24305585 0.17958929999999998 0.37773484 0.13241327 0.12277799 0.58685644 0.434799 0.27736456 0.39086427 0.42753240000000003 0.54130425 0.56743513 0.6340361 0.6102504 0.60248655 0.50072533 0.60955938 0.71631595 0.66526458 0.70036838 0.34767801 0.45850724 0.73903774 0.52361666 0.51508335 0.41768627 0.30199525 0.45724703 0.28859309999999994 0.15256262 0.16566068 0.22198896 0.35536341 0.35025602 0.23771197 0.29322718 0.52298643
-2.1488523999999996 -2.0920793 -1.9171793000000001 -1.3793674999999999 -1.3947797 -1.2245431 -0.70368214 -0.51579361 -0.37018611 -0.0079399061 -0.060596143 0.049118471 0.24305585 0.17958929999999998 0.37773484 0.13241327 0.12277799 0.58685644 0.434799 0.27736456 0.39086427 0.42753240000000003 0.54130425 0.56743513 0.6340361 0.6102504 0.60248655 0.50072533 0.60955938 0.71631595 0.66526458 0.70036838 0.34767801 0.45850724 0.73903774 0.52361666 0.51508335 0.41768627 0.30199525 0.45724703 0.28859309999999994 0.15256262 0.16566068 0.22198896 0.35536341 0.35025602 0.23771197 0.29322718 0.52298643 0.6218095
-2.0920793 -1.9171793000000001 -1.3793674999999999 -1.3947797 -1.2245431 -0.70368214 -0.51579361 -0.37018611 -0.0079399061 -0.060596143 0.049118471 0.24305585 0.17958929999999998 0.37773484 0.13241327 0.12277799 0.58685644 0.434799 0.27736456 0.39086427 0.42753240000000003 0.54130425 0.56743513 0.6340361 0.6102504 0.60248655 0.50072533 0.60955938 0.71631595 0.66526458 0.70036838 0.34767801 0.45850724 0.73903774 0.52361666 0.51508335 0.41768627 0.30199525 0.45724703 0.28859309999999994 0.15256262 0.16566068 0.22198896 0.35536341 0.35025602 0.23771197 0.29322718 0.52298643 0.6218095 0.58480256
-1.9171793000000001 -1.3793674999999999 -1.3947797 -1.2245431 -0.70368214 -0.51579361 -0.37018611 -0.0079399061 -0.060596143 0.049118471 0.24305585 0.17958929999999998 0.37773484 0.13241327 0.12277799 0.58685644 0.434799 0.27736456 0.39086427 0.42753240000000003 0.54130425 0.56743513 0.6340361 0.6102504 0.60248655 0.50072533 0.60955938 0.71631595 0.66526458 0.70036838 0.34767801 0.45850724 0.73903774 0.52361666 0.51508335 0.41768627 0.30199525 0.45724703 0.28859309999999994 0.15256262 0.16566068 0.22198896 0.35536341 0.35025602 0.23771197 0.29322718 0.52298643 0.6218095 0.58480256 0.65454242
-1.3793674999999999 -1.3947797 -1.2245431 -0.70368214 -0.51579361 -0.37018611 -0.0079399061 -0.060596143 0.049118471 0.24305585 0.17958929999999998 0.37773484 0.13241327 0.12277799 0.58685644 0.434799 0.27736456 0.39086427 0.42753240000000003 0.54130425 0.56743513 0.6340361 0.6102504 0.60248655 0.50072533 0.60955938 0.71631595 0.66526458 0.70036838 0.34767801 0.45850724 0.73903774 0.52361666 0.51508335 0.41768627 0.30199525 0.45724703 0.28859309999999994 0.15256262 0.16566068 0.22198896 0.35536341 0.35025602 0.23771197 0.29322718 0.52298643 0.6218095 0.58480256 0.65454242 0.79430976
-1.3947797 -1.2245431 -0.70368214 -0.51579361 -0.37018611 -0.0079399061 -0.060596143 0.049118471 0.24305585 0.17958929999999998 0.37773484 0.13241327 0.12277799 0.58685644 0.434799 0.27736456 0.39086427 0.42753240000000003 0.54130425 0.56743513 0.6340361 0.6102504 0.60248655 0.50072533 0.60955938 0.71631595 0.66526458 0.70036838 0.34767801 0.45850724 0.73903774 0.52361666 0.51508335 0.41768627 0.30199525 0.45724703 0.28859309999999994 0.15256262 0.16566068 0.22198896 0.35536341 0.35025602 0.23771197 0.29322718 0.52298643 0.6218095 0.58480256 0.65454242 0.79430976 0.84635428
-1.2245431 -0.70368214 -0.51579361 -0.37018611 -0.0079399061 -0.060596143 0.049118471 0.24305585 0.17958929999999998 0.37773484 0.13241327 0.12277799 0.58685644 0.434799 0.27736456 0.39086427 0.42753240000000003 0.54130425 0.56743513 0.6340361 0.6102504 0.60248655 0.50072533 0.60955938 0.71631595 0.66526458 0.70036838 0.34767801 0.45850724 0.73903774 0.52361666 0.51508335 0.41768627 0.30199525 0.45724703 0.28859309999999994 0.15256262 0.16566068 0.22198896 0.35536341 0.35025602 0.23771197 0.29322718 0.52298643 0.6218095 0.58480256 0.65454242 0.79430976 0.84635428 0.51370663
-0.70368214 -0.51579361 -0.37018611 -0.0079399061 -0.060596143 0.049118471 0.24305585 0.17958929999999998 0.37773484 0.13241327 0.12277799 0.58685644 0.434799 0.27736456 0.39086427 0.42753240000000003 0.54130425 0.56743513 0.6340361 0.6102504 0.60248655 0.50072533 0.60955938 0.71631595 0.66526458 0.70036838 0.34767801 0.45850724 0.73903774 0.52361666 0.51508335 0.41768627 0.30199525 0.45724703 0.28859309999999994 0.15256262 0.16566068 0.22198896 0.35536341 0.35025602 0.23771197 0.29322718 0.52298643 0.6218095 0.58480256 0.65454242 0.79430976 0.84635428 0.51370663 0.2658702
-0.51579361 -0.37018611 -0.0079399061 -0.060596143 0.049118471 0.24305585 0.17958929999999998 0.37773484 0.13241327 0.12277799 0.58685644 0.434799 0.27736456 0.39086427 0.42753240000000003 0.54130425 0.56743513 0.6340361 0.6102504 0.60248655 0.50072533 0.60955938 0.71631595 0.66526458 0.70036838 0.34767801 0.45850724 0.73903774 0.52361666 0.51508335 0.41768627 0.30199525 0.45724703 0.28859309999999994 0.15256262 0.16566068 0.22198896 0.35536341 0.35025602 0.23771197 0.29322718 0.52298643 0.6218095 0.58480256 0.65454242 0.79430976 0.84635428 0.51370663 0.2658702 0.38071489
-0.37018611 -0.0079399061 -0.060596143 0.049118471 0.24305585 0.17958929999999998 0.37773484 0.13241327 0.12277799 0.58685644 0.434799 0.27736456 0.39086427 0.42753240000000003 0.54130425 0.56743513 0.6340361 0.6102504 0.60248655 0.50072533 0.60955938 0.71631595 0.66526458 0.70036838 0.34767801 0.45850724 0.73903774 0.52361666 0.51508335 0.41768627 0.30199525 0.45724703 0.28859309999999994 0.15256262 0.16566068 0.22198896 0.35536341 0.35025602 0.23771197 0.29322718 0.52298643 0.6218095 0.58480256 0.65454242 0.79430976 0.84635428 0.51370663 0.2658702 0.38071489 0.31812962
-0.0079399061 -0.060596143 0.049118471 0.24305585 0.17958929999999998 0.37773484 0.13241327 0.12277799 0.58685644 0.434799 0.27736456 0.39086427 0.42753240000000003 0.54130425 0.56743513 0.6340361 0.6102504 0.60248655 0.50072533 0.60955938 0.71631595 0.66526458 0.70036838 0.34767801 0.45850724 0.73903774 0.52361666 0.51508335 0.41768627 0.30199525 0.45724703 0.28859309999999994 0.15256262 0.16566068 0.22198896 0.35536341 0.35025602 0.23771197 0.29322718 0.52298643 0.6218095 0.58480256 0.65454242 0.79430976 0.84635428 0.51370663 0.2658702 0.38071489 0.31812962 0.35077223
-0.060596143 0.049118471 0.24305585 0.17958929999999998 0.37773484 0.13241327 0.12277799 0.58685644 0.434799 0.27736456 0.39086427 0.42753240000000003 0.54130425 0.56743513 0.6340361 0.6102504 0.60248655 0.50072533 0.60955938 0.71631595 0.66526458 0.70036838 0.34767801 0.45850724 0.73903774 0.52361666 0.51508335 0.41768627 0.30199525 0.45724703 0.28859309999999994 0.15256262 0.16566068 0.22198896 0.35536341 0.35025602 0.23771197 0.29322718 0.52298643 0.6218095 0.58480256 0.65454242 0.79430976 0.84635428 0.51370663 0.2658702 0.38071489 0.31812962 0.35077223 0.44350383
0.049118471 0.24305585 0.17958929999999998 0.37773484 0.13241327 0.12277799 0.58685644 0.434799 0.27736456 0.39086427 0.42753240000000003 0.54130425 0.56743513 0.6340361 0.6102504 0.60248655 0.50072533 0.60955938 0.71631595 0.66526458 0.70036838 0.34767801 0.45850724 0.73903774 0.52361666 0.51508335 0.41768627 0.30199525 0.45724703 0.28859309999999994 0.15256262 0.16566068 0.22198896 0.35536341 0.35025602 0.23771197 0.29322718 0.52298643 0.6218095 0.58480256 0.65454242 0.79430976 0.84635428 0.51370663 0.2658702 0.38071489 0.31812962 0.35077223 0.44350383 0.38844843
0.24305585 0.17958929999999998 0.37773484 0.13241327 0.12277799 0.58685644 0.434799 0.27736456 0.39086427 0.42753240000000003 0.54130425 0.56743513 0.6340361 0.6102504 0.60248655 0.50072533 0.60955938 0.71631595 0.66526458 0.70036838 0.34767801 0.45850724 0.73903774 0.52361666 0.51508335 0.41768627 0.30199525 0.45724703 0.28859309999999994 0.15256262 0.16566068 0.22198896 0.35536341 0.35025602 0.23771197 0.29322718 0.52298643 0.6218095 0.58480256 0.65454242 0.79430976 0.84635428 0.51370663 0.2658702 0.38071489 0.31812962 0.35077223 0.44350383 0.38844843 0.51552985
0.17958929999999998 0.37773484 0.13241327 0.12277799 0.58685644 0.434799 0.27736456 0.39086427 0.42753240000000003 0.54130425 0.56743513 0.6340361 0.6102504 0.60248655 0.50072533 0.60955938 0.71631595 0.66526458 0.70036838 0.34767801 0.45850724 0.73903774 0.52361666 0.51508335 0.41768627 0.30199525 0.45724703 0.28859309999999994 0.15256262 0.16566068 0.22198896 0.35536341 0.35025602 0.23771197 0.29322718 0.52298643 0.6218095 0.58480256 0.65454242 0.79430976 0.84635428 0.51370663 0.2658702 0.38071489 0.31812962 0.35077223 0.44350383 0.38844843 0.51552985 0.17507977
0.37773484 0.13241327 0.12277799 0.58685644 0.434799 0.27736456 0.39086427 0.42753240000000003 0.54130425 0.56743513 0.6340361 0.6102504 0.60248655 0.50072533 0.60955938 0.71631595 0.66526458 0.70036838 0.34767801 0.45850724 0.73903774 0.52361666 0.51508335 0.41768627 0.30199525 0.45724703 0.28859309999999994 0.15256262 0.16566068 0.22198896 0.35536341 0.35025602 0.23771197 0.29322718 0.52298643 0.6218095 0.58480256 0.65454242 0.79430976 0.84635428 0.51370663 0.2658702 0.38071489 0.31812962 0.35077223 0.44350383 0.38844843 0.51552985 0.17507977 0.0873934
0.13241327 0.12277799 0.58685644 0.434799 0.27736456 0.39086427 0.42753240000000003 0.54130425 0.56743513 0.6340361 0.6102504 0.60248655 0.50072533 0.60955938 0.71631595 0.66526458 0.70036838 0.34767801 0.45850724 0.73903774 0.52361666 0.51508335 0.41768627 0.30199525 0.45724703 0.28859309999999994 0.15256262 0.16566068 0.22198896 0.35536341 0.35025602 0.23771197 0.29322718 0.52298643 0.6218095 0.58480256 0.65454242 0.79430976 0.84635428 0.51370663 0.2658702 0.38071489 0.31812962 0.35077223 0.44350383 0.38844843 0.51552985 0.17507977 0.0873934 0.41601092
0.12277799 0.58685644 0.434799 0.27736456 0.39086427 0.42753240000000003 0.54130425 0.56743513 0.6340361 0.6102504 0.60248655 0.50072533 0.60955938 0.71631595 0.66526458 0.70036838 0.34767801 0.45850724 0.73903774 0.52361666 0.51508335 0.41768627 0.30199525 0.45724703 0.28859309999999994 0.15256262 0.16566068 0.22198896 0.35536341 0.35025602 0.23771197 0.29322718 0.52298643 0.6218095 0.58480256 0.65454242 0.79430976 0.84635428 0.51370663 0.2658702 0.38071489 0.31812962 0.35077223 0.44350383 0.38844843 0.51552985 0.17507977 0.0873934 0.41601092 0.32665573
0.58685644 0.434799 0.27736456 0.39086427 0.42753240000000003 0.54130425 0.56743513 0.6340361 0.6102504 0.60248655 0.50072533 0.60955938 0.71631595 0.66526458 0.70036838 0.34767801 0.45850724 0.73903774 0.52361666 0.51508335 0.41768627 0.30199525 0.45724703 0.28859309999999994 0.15256262 0.16566068 0.22198896 0.35536341 0.35025602 0.23771197 0.29322718 0.52298643 0.6218095 0.58480256 0.65454242 0.79430976 0.84635428 0.51370663 0.2658702 0.38071489 0.31812962 0.35077223 0.44350383 0.38844843 0.51552985 0.17507977 0.0873934 0.41601092 0.32665573 0.40172528
0.434799 0.27736456 0.39086427 0.42753240000000003 0.54130425 0.56743513 0.6340361 0.6102504 0.60248655 0.50072533 0.60955938 0.71631595 0.66526458 0.70036838 0.34767801 0.45850724 0.73903774 0.52361666 0.51508335 0.41768627 0.30199525 0.45724703 0.28859309999999994 0.15256262 0.16566068 0.22198896 0.35536341 0.35025602 0.23771197 0.29322718 0.52298643 0.6218095 0.58480256 0.65454242 0.79430976 0.84635428 0.51370663 0.2658702 0.38071489 0.31812962 0.35077223 0.44350383 0.38844843 0.51552985 0.17507977 0.0873934 0.41601092 0.32665573 0.40172528 0.69112137
0.27736456 0.39086427 0.42753240000000003 0.54130425 0.56743513 0.6340361 0.6102504 0.60248655 0.50072533 0.60955938 0.71631595 0.66526458 0.70036838 0.34767801 0.45850724 0.73903774 0.52361666 0.51508335 0.41768627 0.30199525 0.45724703 0.28859309999999994 0.15256262 0.16566068 0.22198896 0.35536341 0.35025602 0.23771197 0.29322718 0.52298643 0.6218095 0.58480256 0.65454242 0.79430976 0.84635428 0.51370663 0.2658702 0.38071489 0.31812962 0.35077223 0.44350383 0.38844843 0.51552985 0.17507977 0.0873934 0.41601092 0.32665573 0.40172528 0.69112137 1.4804796
0.39086427 0.42753240000000003 0.54130425 0.56743513 0.6340361 0.6102504 0.60248655 0.50072533 0.60955938 0.71631595 0.66526458 0.70036838 0.34767801 0.45850724 0.73903774 0.52361666 0.51508335 0.41768627 0.30199525 0.45724703 0.28859309999999994 0.15256262 0.16566068 0.22198896 0.35536341 0.35025602 0.23771197 0.29322718 0.52298643 0.6218095 0.58480256 0.65454242 0.79430976 0.84635428 0.51370663 0.2658702 0.38071489 0.31812962 0.35077223 0.44350383 0.38844843 0.51552985 0.17507977 0.0873934 0.41601092 0.32665573 0.40172528 0.69112137 1.4804796 2.2212624
0.42753240000000003 0.54130425 0.56743513 0.6340361 0.6102504 0.60248655 0.50072533 0.60955938 0.71631595 0.66526458 0.70036838 0.34767801 0.45850724 0.73903774 0.52361666 0.51508335 0.41768627 0.30199525 0.45724703 0.28859309999999994 0.15256262 0.16566068 0.22198896 0.35536341 0.35025602 0.23771197 0.29322718 0.52298643 0.6218095 0.58480256 0.65454242 0.79430976 0.84635428 0.51370663 0.2658702 0.38071489 0.31812962 0.35077223 0.44350383 0.38844843 0.51552985 0.17507977 0.0873934 0.41601092 0.32665573 0.40172528 0.69112137 1.4804796 2.2212624 2.6229837000000003
0.54130425 0.56743513 0.6340361 0.6102504 0.60248655 0.50072533 0.60955938 0.71631595 0.66526458 0.70036838 0.34767801 0.45850724 0.73903774 0.52361666 0.51508335 0.41768627 0.30199525 0.45724703 0.28859309999999994 0.15256262 0.16566068 0.22198896 0.35536341 0.35025602 0.23771197 0.29322718 0.52298643 0.6218095 0.58480256 0.65454242 0.79430976 0.84635428 0.51370663 0.2658702 0.38071489 0.31812962 0.35077223 0.44350383 0.38844843 0.51552985 0.17507977 0.0873934 0.41601092 0.32665573 0.40172528 0.69112137 1.4804796 2.2212624 2.6229837000000003 2.5891851000000004
0.56743513 0.6340361 0.6102504 0.60248655 0.50072533 0.60955938 0.71631595 0.66526458 0.70036838 0.34767801 0.45850724 0.73903774 0.52361666 0.51508335 0.41768627 0.30199525 0.45724703 0.28859309999999994 0.15256262 0.16566068 0.22198896 0.35536341 0.35025602 0.23771197 0.29322718 0.52298643 0.6218095 0.58480256 0.65454242 0.79430976 0.84635428 0.51370663 0.2658702 0.38071489 0.31812962 0.35077223 0.44350383 0.38844843 0.51552985 0.17507977 0.0873934 0.41601092 0.32665573 0.40172528 0.69112137 1.4804796 2.2212624 2.6229837000000003 2.5891851000000004 1.9354278000000003
0.6340361 0.6102504 0.60248655 0.50072533 0.60955938 0.71631595 0.66526458 0.70036838 0.34767801 0.45850724 0.73903774 0.52361666 0.51508335 0.41768627 0.30199525 0.45724703 0.28859309999999994 0.15256262 0.16566068 0.22198896 0.35536341 0.35025602 0.23771197 0.29322718 0.52298643 0.6218095 0.58480256 0.65454242 0.79430976 0.84635428 0.51370663 0.2658702 0.38071489 0.31812962 0.35077223 0.44350383 0.38844843 0.51552985 0.17507977 0.0873934 0.41601092 0.32665573 0.40172528 0.69112137 1.4804796 2.2212624 2.6229837000000003 2.5891851000000004 1.9354278000000003 0.83474501
0.6102504 0.60248655 0.50072533 0.60955938 0.71631595 0.66526458 0.70036838 0.34767801 0.45850724 0.73903774 0.52361666 0.51508335 0.41768627 0.30199525 0.45724703 0.28859309999999994 0.15256262 0.16566068 0.22198896 0.35536341 0.35025602 0.23771197 0.29322718 0.52298643 0.6218095 0.58480256 0.65454242 0.79430976 0.84635428 0.51370663 0.2658702 0.38071489 0.31812962 0.35077223 0.44350383 0.38844843 0.51552985 0.17507977 0.0873934 0.41601092 0.32665573 0.40172528 0.69112137 1.4804796 2.2212624 2.6229837000000003 2.5891851000000004 1.9354278000000003 0.83474501 -0.030335993
