1.1593518 2.5344027000000002 2.9723235 2.0894468 0.41626364 -0.017382073999999997 1.2204921999999998 1.2212464 1.066033 1.3501838 0.68139322 0.035639147 -0.36203921 -0.44150933 -0.85315246 -0.79641287 -0.74198639 -0.95344005 -1.0306164 -0.98844203 -1.1126344 -1.2711207 -1.2987385 -1.3884359 -1.5144666000000002 -1.6665734 -1.7839511000000001 -1.8865465 -2.0474511000000004 -2.1838105 -2.1544763 -2.1857059 -2.0936898 -1.9738504000000001 -1.6681437 -1.1974178999999998 -0.98878535 -0.63066609 -0.11764925 0.14001755 0.34385896 0.57523285 0.68770474 0.74875446 0.69003713 0.7538736999999999 0.77482939 0.66528731 0.62539553 0.64566147
2.5344027000000002 2.9723235 2.0894468 0.41626364 -0.017382073999999997 1.2204921999999998 1.2212464 1.066033 1.3501838 0.68139322 0.035639147 -0.36203921 -0.44150933 -0.85315246 -0.79641287 -0.74198639 -0.95344005 -1.0306164 -0.98844203 -1.1126344 -1.2711207 -1.2987385 -1.3884359 -1.5144666000000002 -1.6665734 -1.7839511000000001 -1.8865465 -2.0474511000000004 -2.1838105 -2.1544763 -2.1857059 -2.0936898 -1.9738504000000001 -1.6681437 -1.1974178999999998 -0.98878535 -0.63066609 -0.11764925 0.14001755 0.34385896 0.57523285 0.68770474 0.74875446 0.69003713 0.7538736999999999 0.77482939 0.66528731 0.62539553 0.64566147 0.61850929
2.9723235 2.0894468 0.41626364 -0.017382073999999997 1.2204921999999998 1.2212464 1.066033 1.3501838 0.68139322 0.035639147 -0.36203921 -0.44150933 -0.85315246 -0.79641287 -0.74198639 -0.95344005 -1.0306164 -0.98844203 -1.1126344 -1.2711207 -1.2987385 -1.3884359 -1.5144666000000002 -1.6665734 -1.7839511000000001 -1.8865465 -2.0474511000000004 -2.1838105 -2.1544763 -2.1857059 -2.0936898 -1.9738504000000001 -1.6681437 -1.1974178999999998 -0.98878535 -0.63066609 -0.11764925 0.14001755 0.34385896 0.57523285 0.68770474 0.74875446 0.69003713 0.7538736999999999 0.77482939 0.66528731 0.62539553 0.64566147 0.61850929 0.60603772
2.0894468 0.41626364 -0.017382073999999997 1.2204921999999998 1.2212464 1.066033 1.3501838 0.68139322 0.035639147 -0.36203921 -0.44150933 -0.85315246 -0.79641287 -0.74198639 -0.95344005 -1.0306164 -0.98844203 -1.1126344 -1.2711207 -1.2987385 -1.3884359 -1.5144666000000002 -1.6665734 -1.7839511000000001 -1.8865465 -2.0474511000000004 -2.1838105 -2.1544763 -2.1857059 -2.0936898 -1.9738504000000001 -1.6681437 -1.1974178999999998 -0.98878535 -0.63066609 -0.11764925 0.14001755 0.34385896 0.57523285 0.68770474 0.74875446 0.69003713 0.7538736999999999 0.77482939 0.66528731 0.62539553 0.64566147 0.61850929 0.60603772 0.63942927
0.41626364 -0.017382073999999997 1.2204921999999998 1.2212464 1.066033 1.3501838 0.68139322 0.035639147 -0.36203921 -0.44150933 -0.85315246 -0.79641287 -0.74198639 -0.95344005 -1.0306164 -0.98844203 -1.1126344 -1.2711207 -1.2987385 -1.3884359 -1.5144666000000002 -1.6665734 -1.7839511000000001 -1.8865465 -2.0474511000000004 -2.1838105 -2.1544763 -2.1857059 -2.0936898 -1.9738504000000001 -1.6681437 -1.1974178999999998 -0.98878535 -0.63066609 -0.11764925 0.14001755 0.34385896 0.57523285 0.68770474 0.74875446 0.69003713 0.7538736999999999 0.77482939 0.66528731 0.62539553 0.64566147 0.61850929 0.60603772 0.63942927 0.64645492
-0.017382073999999997 1.2204921999999998 1.2212464 1.066033 1.3501838 0.68139322 0.035639147 -0.36203921 -0.44150933 -0.85315246 -0.79641287 -0.74198639 -0.95344005 -1.0306164 -0.98844203 -1.1126344 -1.2711207 -1.2987385 -1.3884359 -1.5144666000000002 -1.6665734 -1.7839511000000001 -1.8865465 -2.0474511000000004 -2.1838105 -2.1544763 -2.1857059 -2.0936898 -1.9738504000000001 -1.6681437 -1.1974178999999998 -0.98878535 -0.63066609 -0.11764925 0.14001755 0.34385896 0.57523285 0.68770474 0.74875446 0.69003713 0.7538736999999999 0.77482939 0.66528731 0.62539553 0.64566147 0.61850929 0.60603772 0.63942927 0.64645492 0.64085722
1.2204921999999998 1.2212464 1.066033 1.3501838 0.68139322 0.035639147 -0.36203921 -0.44150933 -0.85315246 -0.79641287 -0.74198639 -0.95344005 -1.0306164 -0.98844203 -1.1126344 -1.2711207 -1.2987385 -1.3884359 -1.5144666000000002 -1.6665734 -1.7839511000000001 -1.8865465 -2.0474511000000004 -2.1838105 -2.1544763 -2.1857059 -2.0936898 -1.9738504000000001 -1.6681437 -1.1974178999999998 -0.98878535 -0.63066609 -0.11764925 0.14001755 0.34385896 0.57523285 0.68770474 0.74875446 0.69003713 0.7538736999999999 0.77482939 0.66528731 0.62539553 0.64566147 0.61850929 0.60603772 0.63942927 0.64645492 0.64085722 0.55340944
1.2212464 1.066033 1.3501838 0.68139322 0.035639147 -0.36203921 -0.44150933 -0.85315246 -0.79641287 -0.74198639 -0.95344005 -1.0306164 -0.98844203 -1.1126344 -1.2711207 -1.2987385 -1.3884359 -1.5144666000000002 -1.6665734 -1.7839511000000001 -1.8865465 -2.0474511000000004 -2.1838105 -2.1544763 -2.1857059 -2.0936898 -1.9738504000000001 -1.6681437 -1.1974178999999998 -0.98878535 -0.63066609 -0.11764925 0.14001755 0.34385896 0.57523285 0.68770474 0.74875446 0.69003713 0.7538736999999999 0.77482939 0.66528731 0.62539553 0.64566147 0.61850929 0.60603772 0.63942927 0.64645492 0.64085722 0.55340944 0.58247839
1.066033 1.3501838 0.68139322 0.035639147 -0.36203921 -0.44150933 -0.85315246 -0.79641287 -0.74198639 -0.95344005 -1.0306164 -0.98844203 -1.1126344 -1.2711207 -1.2987385 -1.3884359 -1.5144666000000002 -1.6665734 -1.7839511000000001 -1.8865465 -2.0474511000000004 -2.1838105 -2.1544763 -2.1857059 -2.0936898 -1.9738504000000001 -1.6681437 -1.1974178999999998 -0.98878535 -0.63066609 -0.11764925 0.14001755 0.34385896 0.57523285 0.68770474 0.74875446 0.69003713 0.7538736999999999 0.77482939 0.66528731 0.62539553 0.64566147 0.61850929 0.60603772 0.63942927 0.64645492 0.64085722 0.55340944 0.58247839 0.589396
1.3501838 0.68139322 0.035639147 -0.36203921 -0.44150933 -0.85315246 -0.79641287 -0.74198639 -0.95344005 -1.0306164 -0.98844203 -1.1126344 -1.2711207 -1.2987385 -1.3884359 -1.5144666000000002 -1.6665734 -1.7839511000000001 -1.8865465 -2.0474511000000004 -2.1838105 -2.1544763 -2.1857059 -2.0936898 -1.9738504000000001 -1.6681437 -1.1974178999999998 -0.98878535 -0.63066609 -0.11764925 0.14001755 0.34385896 0.57523285 0.68770474 0.74875446 0.69003713 0.7538736999999999 0.77482939 0.66528731 0.62539553 0.64566147 0.61850929 0.60603772 0.63942927 0.64645492 0.64085722 0.55340944 0.58247839 0.589396 0.61619276
0.68139322 0.035639147 -0.36203921 -0.44150933 -0.85315246 -0.79641287 -0.74198639 -0.95344005 -1.0306164 -0.98844203 -1.1126344 -1.2711207 -1.2987385 -1.3884359 -1.5144666000000002 -1.6665734 -1.7839511000000001 -1.8865465 -2.0474511000000004 -2.1838105 -2.1544763 -2.1857059 -2.0936898 -1.9738504000000001 -1.6681437 -1.1974178999999998 -0.98878535 -0.63066609 -0.11764925 0.14001755 0.34385896 0.57523285 0.68770474 0.74875446 0.69003713 0.7538736999999999 0.77482939 0.66528731 0.62539553 0.64566147 0.61850929 0.60603772 0.63942927 0.64645492 0.64085722 0.55340944 0.58247839 0.589396 0.61619276 0.49229477
0.035639147 -0.36203921 -0.44150933 -0.85315246 -0.79641287 -0.74198639 -0.95344005 -1.0306164 -0.98844203 -1.1126344 -1.2711207 -1.2987385 -1.3884359 -1.5144666000000002 -1.6665734 -1.7839511000000001 -1.8865465 -2.0474511000000004 -2.1838105 -2.1544763 -2.1857059 -2.0936898 -1.9738504000000001 -1.6681437 -1.1974178999999998 -0.98878535 -0.63066609 -0.11764925 0.14001755 0.34385896 0.57523285 0.68770474 0.74875446 0.69003713 0.7538736999999999 0.77482939 0.66528731 0.62539553 0.64566147 0.61850929 0.60603772 0.63942927 0.64645492 0.64085722 0.55340944 0.58247839 0.589396 0.61619276 0.49229477 0.48718876
-0.36203921 -0.44150933 -0.85315246 -0.79641287 -0.74198639 -0.95344005 -1.0306164 -0.98844203 -1.1126344 -1.2711207 -1.2987385 -1.3884359 -1.5144666000000002 -1.6665734 -1.7839511000000001 -1.8865465 -2.0474511000000004 -2.1838105 -2.1544763 -2.1857059 -2.0936898 -1.9738504000000001 -1.6681437 -1.1974178999999998 -0.98878535 -0.63066609 -0.11764925 0.14001755 0.34385896 0.57523285 0.68770474 0.74875446 0.69003713 0.7538736999999999 0.77482939 0.66528731 0.62539553 0.64566147 0.61850929 0.60603772 0.63942927 0.64645492 0.64085722 0.55340944 0.58247839 0.589396 0.61619276 0.49229477 0.48718876 0.48857718
-0.44150933 -0.85315246 -0.79641287 -0.74198639 -0.95344005 -1.0306164 -0.98844203 -1.1126344 -1.2711207 -1.2987385 -1.3884359 -1.5144666000000002 -1.6665734 -1.7839511000000001 -1.8865465 -2.0474511000000004 -2.1838105 -2.1544763 -2.1857059 -2.0936898 -1.9738504000000001 -1.6681437 -1.1974178999999998 -0.98878535 -0.63066609 -0.11764925 0.14001755 0.34385896 0.57523285 0.68770474 0.74875446 0.69003713 0.7538736999999999 0.77482939 0.66528731 0.62539553 0.64566147 0.61850929 0.60603772 0.63942927 0.64645492 0.64085722 0.55340944 0.58247839 0.589396 0.61619276 0.49229477 0.48718876 0.48857718 0.39059497
-0.85315246 -0.79641287 -0.74198639 -0.95344005 -1.0306164 -0.98844203 -1.1126344 -1.2711207 -1.2987385 -1.3884359 -1.5144666000000002 -1.6665734 -1.7839511000000001 -1.8865465 -2.0474511000000004 -2.1838105 -2.1544763 -2.1857059 -2.0936898 -1.9738504000000001 -1.6681437 -1.1974178999999998 -0.98878535 -0.63066609 -0.11764925 0.14001755 0.34385896 0.57523285 0.68770474 0.74875446 0.69003713 0.7538736999999999 0.77482939 0.66528731 0.62539553 0.64566147 0.61850929 0.60603772 0.63942927 0.64645492 0.64085722 0.55340944 0.58247839 0.589396 0.61619276 0.49229477 0.48718876 0.48857718 0.39059497 0.42833859999999996
-0.79641287 -0.74198639 -0.95344005 -1.0306164 -0.98844203 -1.1126344 -1.2711207 -1.2987385 -1.3884359 -1.5144666000000002 -1.6665734 -1.7839511000000001 -1.8865465 -2.0474511000000004 -2.1838105 -2.1544763 -2.1857059 -2.0936898 -1.9738504000000001 -1.6681437 -1.1974178999999998 -0.98878535 -0.63066609 -0.11764925 0.14001755 0.34385896 0.57523285 0.68770474 0.74875446 0.69003713 0.7538736999999999 0.77482939 0.66528731 0.62539553 0.64566147 0.61850929 0.60603772 0.63942927 0.64645492 0.64085722 0.55340944 0.58247839 0.589396 0.61619276 0.49229477 0.48718876 0.48857718 0.39059497 0.42833859999999996 0.42369808
-0.74198639 -0.95344005 -1.0306164 -0.98844203 -1.1126344 -1.2711207 -1.2987385 -1.3884359 -1.5144666000000002 -1.6665734 -1.7839511000000001 -1.8865465 -2.0474511000000004 -2.1838105 -2.1544763 -2.1857059 -2.0936898 -1.9738504000000001 -1.6681437 -1.1974178999999998 -0.98878535 -0.63066609 -0.11764925 0.14001755 0.34385896 0.57523285 0.68770474 0.74875446 0.69003713 0.7538736999999999 0.77482939 0.66528731 0.62539553 0.64566147 0.61850929 0.60603772 0.63942927 0.64645492 0.64085722 0.55340944 0.58247839 0.589396 0.61619276 0.49229477 0.48718876 0.48857718 0.39059497 0.42833859999999996 0.42369808 0.27419181
-0.95344005 -1.0306164 -0.98844203 -1.1126344 -1.2711207 -1.2987385 -1.3884359 -1.5144666000000002 -1.6665734 -1.7839511000000001 -1.8865465 -2.0474511000000004 -2.1838105 -2.1544763 -2.1857059 -2.0936898 -1.9738504000000001 -1.6681437 -1.1974178999999998 -0.98878535 -0.63066609 -0.11764925 0.14001755 0.34385896 0.57523285 0.68770474 0.74875446 0.69003713 0.7538736999999999 0.77482939 0.66528731 0.62539553 0.64566147 0.61850929 0.60603772 0.63942927 0.64645492 0.64085722 0.55340944 0.58247839 0.589396 0.61619276 0.49229477 0.48718876 0.48857718 0.39059497 0.42833859999999996 0.42369808 0.27419181 0.25955801
-1.0306164 -0.98844203 -1.1126344 -1.2711207 -1.2987385 -1.3884359 -1.5144666000000002 -1.6665734 -1.7839511000000001 -1.8865465 -2.0474511000000004 -2.1838105 -2.1544763 -2.1857059 -2.0936898 -1.9738504000000001 -1.6681437 -1.1974178999999998 -0.98878535 -0.63066609 -0.11764925 0.14001755 0.34385896 0.57523285 0.68770474 0.74875446 0.69003713 0.7538736999999999 0.77482939 0.66528731 0.62539553 0.64566147 0.61850929 0.60603772 0.63942927 0.64645492 0.64085722 0.55340944 0.58247839 0.589396 0.61619276 0.49229477 0.48718876 0.48857718 0.39059497 0.42833859999999996 0.42369808 0.27419181 0.25955801 0.37310296
-0.98844203 -1.1126344 -1.2711207 -1.2987385 -1.3884359 -1.5144666000000002 -1.6665734 -1.7839511000000001 -1.8865465 -2.0474511000000004 -2.1838105 -2.1544763 -2.1857059 -2.0936898 -1.9738504000000001 -1.6681437 -1.1974178999999998 -0.98878535 -0.63066609 -0.11764925 0.14001755 0.34385896 0.57523285 0.68770474 0.74875446 0.69003713 0.7538736999999999 0.77482939 0.66528731 0.62539553 0.64566147 0.61850929 0.60603772 0.63942927 0.64645492 0.64085722 0.55340944 0.58247839 0.589396 0.61619276 0.49229477 0.48718876 0.48857718 0.39059497 0.42833859999999996 0.42369808 0.27419181 0.25955801 0.37310296 0.26053993
-1.1126344 -1.2711207 -1.2987385 -1.3884359 -1.5144666000000002 -1.6665734 -1.7839511000000001 -1.8865465 -2.0474511000000004 -2.1838105 -2.1544763 -2.1857059 -2.0936898 -1.9738504000000001 -1.6681437 -1.1974178999999998 -0.98878535 -0.63066609 -0.11764925 0.14001755 0.34385896 0.57523285 0.68770474 0.74875446 0.69003713 0.7538736999999999 0.77482939 0.66528731 0.62539553 0.64566147 0.61850929 0.60603772 0.63942927 0.64645492 0.64085722 0.55340944 0.58247839 0.589396 0.61619276 0.49229477 0.48718876 0.48857718 0.39059497 0.42833859999999996 0.42369808 0.27419181 0.25955801 0.37310296 0.26053993 0.27551164
-1.2711207 -1.2987385 -1.3884359 -1.5144666000000002 -1.6665734 -1.7839511000000001 -1.8865465 -2.0474511000000004 -2.1838105 -2.1544763 -2.1857059 -2.0936898 -1.9738504000000001 -1.6681437 -1.1974178999999998 -0.98878535 -0.63066609 -0.11764925 0.14001755 0.34385896 0.57523285 0.68770474 0.74875446 0.69003713 0.7538736999999999 0.77482939 0.66528731 0.62539553 0.64566147 0.61850929 0.60603772 0.63942927 0.64645492 0.64085722 0.55340944 0.58247839 0.589396 0.61619276 0.49229477 0.48718876 0.48857718 0.39059497 0.42833859999999996 0.42369808 0.27419181 0.25955801 0.37310296 0.26053993 0.27551164 0.3072742
-1.2987385 -1.3884359 -1.5144666000000002 -1.6665734 -1.7839511000000001 -1.8865465 -2.0474511000000004 -2.1838105 -2.1544763 -2.1857059 -2.0936898 -1.9738504000000001 -1.6681437 -1.1974178999999998 -0.98878535 -0.63066609 -0.11764925 0.14001755 0.34385896 0.57523285 0.68770474 0.74875446 0.69003713 0.7538736999999999 0.77482939 0.66528731 0.62539553 0.64566147 0.61850929 0.60603772 0.63942927 0.64645492 0.64085722 0.55340944 0.58247839 0.589396 0.61619276 0.49229477 0.48718876 0.48857718 0.39059497 0.42833859999999996 0.42369808 0.27419181 0.25955801 0.37310296 0.26053993 0.27551164 0.3072742 0.28528169
-1.3884359 -1.5144666000000002 -1.6665734 -1.7839511000000001 -1.8865465 -2.0474511000000004 -2.1838105 -2.1544763 -2.1857059 -2.0936898 -1.9738504000000001 -1.6681437 -1.1974178999999998 -0.98878535 -0.63066609 -0.11764925 0.14001755 0.34385896 0.57523285 0.68770474 0.74875446 0.69003713 0.7538736999999999 0.77482939 0.66528731 0.62539553 0.64566147 0.61850929 0.60603772 0.63942927 0.64645492 0.64085722 0.55340944 0.58247839 0.589396 0.61619276 0.49229477 0.48718876 0.48857718 0.39059497 0.42833859999999996 0.42369808 0.27419181 0.25955801 0.37310296 0.26053993 0.27551164 0.3072742 0.28528169 0.23011999
-1.5144666000000002 -1.6665734 -1.7839511000000001 -1.8865465 -2.0474511000000004 -2.1838105 -2.1544763 -2.1857059 -2.0936898 -1.9738504000000001 -1.6681437 -1.1974178999999998 -0.98878535 -0.63066609 -0.11764925 0.14001755 0.34385896 0.57523285 0.68770474 0.74875446 0.69003713 0.7538736999999999 0.77482939 0.66528731 0.62539553 0.64566147 0.61850929 0.60603772 0.63942927 0.64645492 0.64085722 0.55340944 0.58247839 0.589396 0.61619276 0.49229477 0.48718876 0.48857718 0.39059497 0.42833859999999996 0.42369808 0.27419181 0.25955801 0.37310296 0.26053993 0.27551164 0.3072742 0.28528169 0.23011999 0.18064991
-1.6665734 -1.7839511000000001 -1.8865465 -2.0474511000000004 -2.1838105 -2.1544763 -2.1857059 -2.0936898 -1.9738504000000001 -1.6681437 -1.1974178999999998 -0.98878535 -0.63066609 -0.11764925 0.14001755 0.34385896 0.57523285 0.68770474 0.74875446 0.69003713 0.7538736999999999 0.77482939 0.66528731 0.62539553 0.64566147 0.61850929 0.60603772 0.63942927 0.64645492 0.64085722 0.55340944 0.58247839 0.589396 0.61619276 0.49229477 0.48718876 0.48857718 0.39059497 0.42833859999999996 0.42369808 0.27419181 0.25955801 0.37310296 0.26053993 0.27551164 0.3072742 0.28528169 0.23011999 0.18064991 0.47671620000000003
-1.7839511000000001 -1.8865465 -2.0474511000000004 -2.1838105 -2.1544763 -2.1857059 -2.0936898 -1.9738504000000001 -1.6681437 -1.1974178999999998 -0.98878535 -0.63066609 -0.11764925 0.14001755 0.34385896 0.57523285 0.68770474 0.74875446 0.69003713 0.7538736999999999 0.77482939 0.66528731 0.62539553 0.64566147 0.61850929 0.60603772 0.63942927 0.64645492 0.64085722 0.55340944 0.58247839 0.589396 0.61619276 0.49229477 0.48718876 0.48857718 0.39059497 0.42833859999999996 0.42369808 0.27419181 0.25955801 0.37310296 0.26053993 0.27551164 0.3072742 0.28528169 0.23011999 0.18064991 0.47671620000000003 0.65199991
-1.8865465 -2.0474511000000004 -2.1838105 -2.1544763 -2.1857059 -2.0936898 -1.9738504000000001 -1.6681437 -1.1974178999999998 -0.98878535 -0.63066609 -0.11764925 0.14001755 0.34385896 0.57523285 0.68770474 0.74875446 0.69003713 0.7538736999999999 0.77482939 0.66528731 0.62539553 0.64566147 0.61850929 0.60603772 0.63942927 0.64645492 0.64085722 0.55340944 0.58247839 0.589396 0.61619276 0.49229477 0.48718876 0.48857718 0.39059497 0.42833859999999996 0.42369808 0.27419181 0.25955801 0.37310296 0.26053993 0.27551164 0.3072742 0.28528169 0.23011999 0.18064991 0.47671620000000003 0.65199991 0.60353396
-2.0474511000000004 -2.1838105 -2.1544763 -2.1857059 -2.0936898 -1.9738504000000001 -1.6681437 -1.1974178999999998 -0.98878535 -0.63066609 -0.11764925 0.14001755 0.34385896 0.57523285 0.68770474 0.74875446 0.69003713 0.7538736999999999 0.77482939 0.66528731 0.62539553 0.64566147 0.61850929 0.60603772 0.63942927 0.64645492 0.64085722 0.55340944 0.58247839 0.589396 0.61619276 0.49229477 0.48718876 0.48857718 0.39059497 0.42833859999999996 0.42369808 0.27419181 0.25955801 0.37310296 0.26053993 0.27551164 0.3072742 0.28528169 0.23011999 0.18064991 0.47671620000000003 0.65199991 0.60353396 0.58548774
-2.1838105 -2.1544763 -2.1857059 -2.0936898 -1.9738504000000001 -1.6681437 -1.1974178999999998 -0.98878535 -0.63066609 -0.11764925 0.14001755 0.34385896 0.57523285 0.68770474 0.74875446 0.69003713 0.7538736999999999 0.77482939 0.66528731 0.62539553 0.64566147 0.61850929 0.60603772 0.63942927 0.64645492 0.64085722 0.55340944 0.58247839 0.589396 0.61619276 0.49229477 0.48718876 0.48857718 0.39059497 0.42833859999999996 0.42369808 0.27419181 0.25955801 0.37310296 0.26053993 0.27551164 0.3072742 0.28528169 0.23011999 0.18064991 0.47671620000000003 0.65199991 0.60353396 0.58548774 0.61454016
-2.1544763 -2.1857059 -2.0936898 -1.9738504000000001 -1.6681437 -1.1974178999999998 -0.98878535 -0.63066609 -0.11764925 0.14001755 0.34385896 0.57523285 0.68770474 0.74875446 0.69003713 0.7538736999999999 0.77482939 0.66528731 0.62539553 0.64566147 0.61850929 0.60603772 0.63942927 0.64645492 0.64085722 0.55340944 0.58247839 0.589396 0.61619276 0.49229477 0.48718876 0.48857718 0.39059497 0.42833859999999996 0.42369808 0.27419181 0.25955801 0.37310296 0.26053993 0.27551164 0.3072742 0.28528169 0.23011999 0.18064991 0.47671620000000003 0.65199991 0.60353396 0.58548774 0.61454016 0.4406746
-2.1857059 -2.0936898 -1.9738504000000001 -1.6681437 -1.1974178999999998 -0.98878535 -0.63066609 -0.11764925 0.14001755 0.34385896 0.57523285 0.68770474 0.74875446 0.69003713 0.7538736999999999 0.77482939 0.66528731 0.62539553 0.64566147 0.61850929 0.60603772 0.63942927 0.64645492 0.64085722 0.55340944 0.58247839 0.589396 0.61619276 0.49229477 0.48718876 0.48857718 0.39059497 0.42833859999999996 0.42369808 0.27419181 0.25955801 0.37310296 0.26053993 0.27551164 0.3072742 0.28528169 0.23011999 0.18064991 0.47671620000000003 0.65199991 0.60353396 0.58548774 0.61454016 0.4406746 0.20044633
-2.0936898 -1.9738504000000001 -1.6681437 -1.1974178999999998 -0.98878535 -0.63066609 -0.11764925 0.14001755 0.34385896 0.57523285 0.68770474 0.74875446 0.69003713 0.7538736999999999 0.77482939 0.66528731 0.62539553 0.64566147 0.61850929 0.60603772 0.63942927 0.64645492 0.64085722 0.55340944 0.58247839 0.589396 0.61619276 0.49229477 0.48718876 0.48857718 0.39059497 0.42833859999999996 0.42369808 0.27419181 0.25955801 0.37310296 0.26053993 0.27551164 0.3072742 0.28528169 0.23011999 0.18064991 0.47671620000000003 0.65199991 0.60353396 0.58548774 0.61454016 0.4406746 0.20044633 0.16804595
-1.9738504000000001 -1.6681437 -1.1974178999999998 -0.98878535 -0.63066609 -0.11764925 0.14001755 0.34385896 0.57523285 0.68770474 0.74875446 0.69003713 0.7538736999999999 0.77482939 0.66528731 0.62539553 0.64566147 0.61850929 0.60603772 0.63942927 0.64645492 0.64085722 0.55340944 0.58247839 0.589396 0.61619276 0.49229477 0.48718876 0.48857718 0.39059497 0.42833859999999996 0.42369808 0.27419181 0.25955801 0.37310296 0.26053993 0.27551164 0.3072742 0.28528169 0.23011999 0.18064991 0.47671620000000003 0.65199991 0.60353396 0.58548774 0.61454016 0.4406746 0.20044633 0.16804595 -0.016371308
-1.6681437 -1.1974178999999998 -0.98878535 -0.63066609 -0.11764925 0.14001755 0.34385896 0.57523285 0.68770474 0.74875446 0.69003713 0.7538736999999999 0.77482939 0.66528731 0.62539553 0.64566147 0.61850929 0.60603772 0.63942927 0.64645492 0.64085722 0.55340944 0.58247839 0.589396 0.61619276 0.49229477 0.48718876 0.48857718 0.39059497 0.42833859999999996 0.42369808 0.27419181 0.25955801 0.37310296 0.26053993 0.27551164 0.3072742 0.28528169 0.23011999 0.18064991 0.47671620000000003 0.65199991 0.60353396 0.58548774 0.61454016 0.4406746 0.20044633 0.16804595 -0.016371308 0.013378906999999999
-1.1974178999999998 -0.98878535 -0.63066609 -0.11764925 0.14001755 0.34385896 0.57523285 0.68770474 0.74875446 0.69003713 0.7538736999999999 0.77482939 0.66528731 0.62539553 0.64566147 0.61850929 0.60603772 0.63942927 0.64645492 0.64085722 0.55340944 0.58247839 0.589396 0.61619276 0.49229477 0.48718876 0.48857718 0.39059497 0.42833859999999996 0.42369808 0.27419181 0.25955801 0.37310296 0.26053993 0.27551164 0.3072742 0.28528169 0.23011999 0.18064991 0.47671620000000003 0.65199991 0.60353396 0.58548774 0.61454016 0.4406746 0.20044633 0.16804595 -0.016371308 0.013378906999999999 -0.073255282
-0.98878535 -0.63066609 -0.11764925 0.14001755 0.34385896 0.57523285 0.68770474 0.74875446 0.69003713 0.7538736999999999 0.77482939 0.66528731 0.62539553 0.64566147 0.61850929 0.60603772 0.63942927 0.64645492 0.64085722 0.55340944 0.58247839 0.589396 0.61619276 0.49229477 0.48718876 0.48857718 0.39059497 0.42833859999999996 0.42369808 0.27419181 0.25955801 0.37310296 0.26053993 0.27551164 0.3072742 0.28528169 0.23011999 0.18064991 0.47671620000000003 0.65199991 0.60353396 0.58548774 0.61454016 0.4406746 0.20044633 0.16804595 -0.016371308 0.013378906999999999 -0.073255282 0.0027093835
-0.63066609 -0.11764925 0.14001755 0.34385896 0.57523285 0.68770474 0.74875446 0.69003713 0.7538736999999999 0.77482939 0.66528731 0.62539553 0.64566147 0.61850929 0.60603772 0.63942927 0.64645492 0.64085722 0.55340944 0.58247839 0.589396 0.61619276 0.49229477 0.48718876 0.48857718 0.39059497 0.42833859999999996 0.42369808 0.27419181 0.25955801 0.37310296 0.26053993 0.27551164 0.3072742 0.28528169 0.23011999 0.18064991 0.47671620000000003 0.65199991 0.60353396 0.58548774 0.61454016 0.4406746 0.20044633 0.16804595 -0.016371308 0.013378906999999999 -0.073255282 0.0027093835 0.047906089000000006
-0.11764925 0.14001755 0.34385896 0.57523285 0.68770474 0.74875446 0.69003713 0.7538736999999999 0.77482939 0.66528731 0.62539553 0.64566147 0.61850929 0.60603772 0.63942927 0.64645492 0.64085722 0.55340944 0.58247839 0.589396 0.61619276 0.49229477 0.48718876 0.48857718 0.39059497 0.42833859999999996 0.42369808 0.27419181 0.25955801 0.37310296 0.26053993 0.27551164 0.3072742 0.28528169 0.23011999 0.18064991 0.47671620000000003 0.65199991 0.60353396 0.58548774 0.61454016 0.4406746 0.20044633 0.16804595 -0.016371308 0.013378906999999999 -0.073255282 0.0027093835 0.047906089000000006 -0.089623497
0.14001755 0.34385896 0.57523285 0.68770474 0.74875446 0.69003713 0.7538736999999999 0.77482939 0.66528731 0.62539553 0.64566147 0.61850929 0.60603772 0.63942927 0.64645492 0.64085722 0.55340944 0.58247839 0.589396 0.61619276 0.49229477 0.48718876 0.48857718 0.39059497 0.42833859999999996 0.42369808 0.27419181 0.25955801 0.37310296 0.26053993 0.27551164 0.3072742 0.28528169 0.23011999 0.18064991 0.47671620000000003 0.65199991 0.60353396 0.58548774 0.61454016 0.4406746 0.20044633 0.16804595 -0.016371308 0.013378906999999999 -0.073255282 0.0027093835 0.047906089000000006 -0.089623497 -0.068106286
0.34385896 0.57523285 0.68770474 0.74875446 0.69003713 0.7538736999999999 0.77482939 0.66528731 0.62539553 0.64566147 0.61850929 0.60603772 0.63942927 0.64645492 0.64085722 0.55340944 0.58247839 0.589396 0.61619276 0.49229477 0.48718876 0.48857718 0.39059497 0.42833859999999996 0.42369808 0.27419181 0.25955801 0.37310296 0.26053993 0.27551164 0.3072742 0.28528169 0.23011999 0.18064991 0.47671620000000003 0.65199991 0.60353396 0.58548774 0.61454016 0.4406746 0.20044633 0.16804595 -0.016371308 0.013378906999999999 -0.073255282 0.0027093835 0.047906089000000006 -0.089623497 -0.068106286 -0.012348399999999999
0.57523285 0.68770474 0.74875446 0.69003713 0.7538736999999999 0.77482939 0.66528731 0.62539553 0.64566147 0.61850929 0.60603772 0.63942927 0.64645492 0.64085722 0.55340944 0.58247839 0.589396 0.61619276 0.49229477 0.48718876 0.48857718 0.39059497 0.42833859999999996 0.42369808 0.27419181 0.25955801 0.37310296 0.26053993 0.27551164 0.3072742 0.28528169 0.23011999 0.18064991 0.47671620000000003 0.65199991 0.60353396 0.58548774 0.61454016 0.4406746 0.20044633 0.16804595 -0.016371308 0.013378906999999999 -0.073255282 0.0027093835 0.047906089000000006 -0.089623497 -0.068106286 -0.012348399999999999 -0.011726536000000001
0.68770474 0.74875446 0.69003713 0.7538736999999999 0.77482939 0.66528731 0.62539553 0.64566147 0.61850929 0.60603772 0.63942927 0.64645492 0.64085722 0.55340944 0.58247839 0.589396 0.61619276 0.49229477 0.48718876 0.48857718 0.39059497 0.42833859999999996 0.42369808 0.27419181 0.25955801 0.37310296 0.26053993 0.27551164 0.3072742 0.28528169 0.23011999 0.18064991 0.47671620000000003 0.65199991 0.60353396 0.58548774 0.61454016 0.4406746 0.20044633 0.16804595 -0.016371308 0.013378906999999999 -0.073255282 0.0027093835 0.047906089000000006 -0.089623497 -0.068106286 -0.012348399999999999 -0.011726536000000001 -0.07990608
0.74875446 0.69003713 0.7538736999999999 0.77482939 0.66528731 0.62539553 0.64566147 0.61850929 0.60603772 0.63942927 0.64645492 0.64085722 0.55340944 0.58247839 0.589396 0.61619276 0.49229477 0.48718876 0.48857718 0.39059497 0.42833859999999996 0.42369808 0.27419181 0.25955801 0.37310296 0.26053993 0.27551164 0.3072742 0.28528169 0.23011999 0.18064991 0.47671620000000003 0.65199991 0.60353396 0.58548774 0.61454016 0.4406746 0.20044633 0.16804595 -0.016371308 0.013378906999999999 -0.073255282 0.0027093835 0.047906089000000006 -0.089623497 -0.068106286 -0.012348399999999999 -0.011726536000000001 -0.07990608 -0.051751977000000005
0.69003713 0.7538736999999999 0.77482939 0.66528731 0.62539553 0.64566147 0.61850929 0.60603772 0.63942927 0.64645492 0.64085722 0.55340944 0.58247839 0.589396 0.61619276 0.49229477 0.48718876 0.48857718 0.39059497 0.42833859999999996 0.42369808 0.27419181 0.25955801 0.37310296 0.26053993 0.27551164 0.3072742 0.28528169 0.23011999 0.18064991 0.47671620000000003 0.65199991 0.60353396 0.58548774 0.61454016 0.4406746 0.20044633 0.16804595 -0.016371308 0.013378906999999999 -0.073255282 0.0027093835 0.047906089000000006 -0.089623497 -0.068106286 -0.012348399999999999 -0.011726536000000001 -0.07990608 -0.051751977000000005 -0.054228554000000005
0.7538736999999999 0.77482939 0.66528731 0.62539553 0.64566147 0.61850929 0.60603772 0.63942927 0.64645492 0.64085722 0.55340944 0.58247839 0.589396 0.61619276 0.49229477 0.48718876 0.48857718 0.39059497 0.42833859999999996 0.42369808 0.27419181 0.25955801 0.37310296 0.26053993 0.27551164 0.3072742 0.28528169 0.23011999 0.18064991 0.47671620000000003 0.65199991 0.60353396 0.58548774 0.61454016 0.4406746 0.20044633 0.16804595 -0.016371308 0.013378906999999999 -0.073255282 0.0027093835 0.047906089000000006 -0.089623497 -0.068106286 -0.012348399999999999 -0.011726536000000001 -0.07990608 -0.051751977000000005 -0.054228554000000005 -0.081739151
0.77482939 0.66528731 0.62539553 0.64566147 0.61850929 0.60603772 0.63942927 0.64645492 0.64085722 0.55340944 0.58247839 0.589396 0.61619276 0.49229477 0.48718876 0.48857718 0.39059497 0.42833859999999996 0.42369808 0.27419181 0.25955801 0.37310296 0.26053993 0.27551164 0.3072742 0.28528169 0.23011999 0.18064991 0.47671620000000003 0.65199991 0.60353396 0.58548774 0.61454016 0.4406746 0.20044633 0.16804595 -0.016371308 0.013378906999999999 -0.073255282 0.0027093835 0.047906089000000006 -0.089623497 -0.068106286 -0.012348399999999999 -0.011726536000000001 -0.07990608 -0.051751977000000005 -0.054228554000000005 -0.081739151 0.035595301
