0.9548886999999999 2.1905342999999995 3.438425 3.3063762000000003 2.7520431 0.94861402 0.10024156 1.0080502 0.79991001 0.66919319 0.75164438 0.33961792 -0.10043702 -0.37277379 -0.40366919 -0.61250256 -0.77438015 -0.62467027 -0.87058323 -0.96719059 -0.97903958 -1.1457138999999998 -1.0789287 -1.3019739 -1.4584021999999999 -1.4309802 -1.6022496000000002 -1.6908282 -1.7542855 -1.739732 -1.9576504000000001 -1.9800571 -1.8878595 -1.8733188000000003 -1.6835565 -1.4389982 -1.1539 -0.664543 -0.39578689 -0.17948173 0.37501079 0.49110358 0.55337516 0.77381467 0.78654607 0.76038414 0.77982162 0.67836334 0.64906624 0.62812588
2.1905342999999995 3.438425 3.3063762000000003 2.7520431 0.94861402 0.10024156 1.0080502 0.79991001 0.66919319 0.75164438 0.33961792 -0.10043702 -0.37277379 -0.40366919 -0.61250256 -0.77438015 -0.62467027 -0.87058323 -0.96719059 -0.97903958 -1.1457138999999998 -1.0789287 -1.3019739 -1.4584021999999999 -1.4309802 -1.6022496000000002 -1.6908282 -1.7542855 -1.739732 -1.9576504000000001 -1.9800571 -1.8878595 -1.8733188000000003 -1.6835565 -1.4389982 -1.1539 -0.664543 -0.39578689 -0.17948173 0.37501079 0.49110358 0.55337516 0.77381467 0.78654607 0.76038414 0.77982162 0.67836334 0.64906624 0.62812588 0.50539457
3.438425 3.3063762000000003 2.7520431 0.94861402 0.10024156 1.0080502 0.79991001 0.66919319 0.75164438 0.33961792 -0.10043702 -0.37277379 -0.40366919 -0.61250256 -0.77438015 -0.62467027 -0.87058323 -0.96719059 -0.97903958 -1.1457138999999998 -1.0789287 -1.3019739 -1.4584021999999999 -1.4309802 -1.6022496000000002 -1.6908282 -1.7542855 -1.739732 -1.9576504000000001 -1.9800571 -1.8878595 -1.8733188000000003 -1.6835565 -1.4389982 -1.1539 -0.664543 -0.39578689 -0.17948173 0.37501079 0.49110358 0.55337516 0.77381467 0.78654607 0.76038414 0.77982162 0.67836334 0.64906624 0.62812588 0.50539457 0.51614047
3.3063762000000003 2.7520431 0.94861402 0.10024156 1.0080502 0.79991001 0.66919319 0.75164438 0.33961792 -0.10043702 -0.37277379 -0.40366919 -0.61250256 -0.77438015 -0.62467027 -0.87058323 -0.96719059 -0.97903958 -1.1457138999999998 -1.0789287 -1.3019739 -1.4584021999999999 -1.4309802 -1.6022496000000002 -1.6908282 -1.7542855 -1.739732 -1.9576504000000001 -1.9800571 -1.8878595 -1.8733188000000003 -1.6835565 -1.4389982 -1.1539 -0.664543 -0.39578689 -0.17948173 0.37501079 0.49110358 0.55337516 0.77381467 0.78654607 0.76038414 0.77982162 0.67836334 0.64906624 0.62812588 0.50539457 0.51614047 0.50937568
2.7520431 0.94861402 0.10024156 1.0080502 0.79991001 0.66919319 0.75164438 0.33961792 -0.10043702 -0.37277379 -0.40366919 -0.61250256 -0.77438015 -0.62467027 -0.87058323 -0.96719059 -0.97903958 -1.1457138999999998 -1.0789287 -1.3019739 -1.4584021999999999 -1.4309802 -1.6022496000000002 -1.6908282 -1.7542855 -1.739732 -1.9576504000000001 -1.9800571 -1.8878595 -1.8733188000000003 -1.6835565 -1.4389982 -1.1539 -0.664543 -0.39578689 -0.17948173 0.37501079 0.49110358 0.55337516 0.77381467 0.78654607 0.76038414 0.77982162 0.67836334 0.64906624 0.62812588 0.50539457 0.51614047 0.50937568 0.44309433
0.94861402 0.10024156 1.0080502 0.79991001 0.66919319 0.75164438 0.33961792 -0.10043702 -0.37277379 -0.40366919 -0.61250256 -0.77438015 -0.62467027 -0.87058323 -0.96719059 -0.97903958 -1.1457138999999998 -1.0789287 -1.3019739 -1.4584021999999999 -1.4309802 -1.6022496000000002 -1.6908282 -1.7542855 -1.739732 -1.9576504000000001 -1.9800571 -1.8878595 -1.8733188000000003 -1.6835565 -1.4389982 -1.1539 -0.664543 -0.39578689 -0.17948173 0.37501079 0.49110358 0.55337516 0.77381467 0.78654607 0.76038414 0.77982162 0.67836334 0.64906624 0.62812588 0.50539457 0.51614047 0.50937568 0.44309433 0.43775475
0.10024156 1.0080502 0.79991001 0.66919319 0.75164438 0.33961792 -0.10043702 -0.37277379 -0.40366919 -0.61250256 -0.77438015 -0.62467027 -0.87058323 -0.96719059 -0.97903958 -1.1457138999999998 -1.0789287 -1.3019739 -1.4584021999999999 -1.4309802 -1.6022496000000002 -1.6908282 -1.7542855 -1.739732 -1.9576504000000001 -1.9800571 -1.8878595 -1.8733188000000003 -1.6835565 -1.4389982 -1.1539 -0.664543 -0.39578689 -0.17948173 0.37501079 0.49110358 0.55337516 0.77381467 0.78654607 0.76038414 0.77982162 0.67836334 0.64906624 0.62812588 0.50539457 0.51614047 0.50937568 0.44309433 0.43775475 0.50858506
1.0080502 0.79991001 0.66919319 0.75164438 0.33961792 -0.10043702 -0.37277379 -0.40366919 -0.61250256 -0.77438015 -0.62467027 -0.87058323 -0.96719059 -0.97903958 -1.1457138999999998 -1.0789287 -1.3019739 -1.4584021999999999 -1.4309802 -1.6022496000000002 -1.6908282 -1.7542855 -1.739732 -1.9576504000000001 -1.9800571 -1.8878595 -1.8733188000000003 -1.6835565 -1.4389982 -1.1539 -0.664543 -0.39578689 -0.17948173 0.37501079 0.49110358 0.55337516 0.77381467 0.78654607 0.76038414 0.77982162 0.67836334 0.64906624 0.62812588 0.50539457 0.51614047 0.50937568 0.44309433 0.43775475 0.50858506 0.55839082
0.79991001 0.66919319 0.75164438 0.33961792 -0.10043702 -0.37277379 -0.40366919 -0.61250256 -0.77438015 -0.62467027 -0.87058323 -0.96719059 -0.97903958 -1.1457138999999998 -1.0789287 -1.3019739 -1.4584021999999999 -1.4309802 -1.6022496000000002 -1.6908282 -1.7542855 -1.739732 -1.9576504000000001 -1.9800571 -1.8878595 -1.8733188000000003 -1.6835565 -1.4389982 -1.1539 -0.664543 -0.39578689 -0.17948173 0.37501079 0.49110358 0.55337516 0.77381467 0.78654607 0.76038414 0.77982162 0.67836334 0.64906624 0.62812588 0.50539457 0.51614047 0.50937568 0.44309433 0.43775475 0.50858506 0.55839082 0.41194473
0.66919319 0.75164438 0.33961792 -0.10043702 -0.37277379 -0.40366919 -0.61250256 -0.77438015 -0.62467027 -0.87058323 -0.96719059 -0.97903958 -1.1457138999999998 -1.0789287 -1.3019739 -1.4584021999999999 -1.4309802 -1.6022496000000002 -1.6908282 -1.7542855 -1.739732 -1.9576504000000001 -1.9800571 -1.8878595 -1.8733188000000003 -1.6835565 -1.4389982 -1.1539 -0.664543 -0.39578689 -0.17948173 0.37501079 0.49110358 0.55337516 0.77381467 0.78654607 0.76038414 0.77982162 0.67836334 0.64906624 0.62812588 0.50539457 0.51614047 0.50937568 0.44309433 0.43775475 0.50858506 0.55839082 0.41194473 0.50587482
0.75164438 0.33961792 -0.10043702 -0.37277379 -0.40366919 -0.61250256 -0.77438015 -0.62467027 -0.87058323 -0.96719059 -0.97903958 -1.1457138999999998 -1.0789287 -1.3019739 -1.4584021999999999 -1.4309802 -1.6022496000000002 -1.6908282 -1.7542855 -1.739732 -1.9576504000000001 -1.9800571 -1.8878595 -1.8733188000000003 -1.6835565 -1.4389982 -1.1539 -0.664543 -0.39578689 -0.17948173 0.37501079 0.49110358 0.55337516 0.77381467 0.78654607 0.76038414 0.77982162 0.67836334 0.64906624 0.62812588 0.50539457 0.51614047 0.50937568 0.44309433 0.43775475 0.50858506 0.55839082 0.41194473 0.50587482 0.4196960999999999
0.33961792 -0.10043702 -0.37277379 -0.40366919 -0.61250256 -0.77438015 -0.62467027 -0.87058323 -0.96719059 -0.97903958 -1.1457138999999998 -1.0789287 -1.3019739 -1.4584021999999999 -1.4309802 -1.6022496000000002 -1.6908282 -1.7542855 -1.739732 -1.9576504000000001 -1.9800571 -1.8878595 -1.8733188000000003 -1.6835565 -1.4389982 -1.1539 -0.664543 -0.39578689 -0.17948173 0.37501079 0.49110358 0.55337516 0.77381467 0.78654607 0.76038414 0.77982162 0.67836334 0.64906624 0.62812588 0.50539457 0.51614047 0.50937568 0.44309433 0.43775475 0.50858506 0.55839082 0.41194473 0.50587482 0.4196960999999999 0.39749103
-0.10043702 -0.37277379 -0.40366919 -0.61250256 -0.77438015 -0.62467027 -0.87058323 -0.96719059 -0.97903958 -1.1457138999999998 -1.0789287 -1.3019739 -1.4584021999999999 -1.4309802 -1.6022496000000002 -1.6908282 -1.7542855 -1.739732 -1.9576504000000001 -1.9800571 -1.8878595 -1.8733188000000003 -1.6835565 -1.4389982 -1.1539 -0.664543 -0.39578689 -0.17948173 0.37501079 0.49110358 0.55337516 0.77381467 0.78654607 0.76038414 0.77982162 0.67836334 0.64906624 0.62812588 0.50539457 0.51614047 0.50937568 0.44309433 0.43775475 0.50858506 0.55839082 0.41194473 0.50587482 0.4196960999999999 0.39749103 0.42809569
-0.37277379 -0.40366919 -0.61250256 -0.77438015 -0.62467027 -0.87058323 -0.96719059 -0.97903958 -1.1457138999999998 -1.0789287 -1.3019739 -1.4584021999999999 -1.4309802 -1.6022496000000002 -1.6908282 -1.7542855 -1.739732 -1.9576504000000001 -1.9800571 -1.8878595 -1.8733188000000003 -1.6835565 -1.4389982 -1.1539 -0.664543 -0.39578689 -0.17948173 0.37501079 0.49110358 0.55337516 0.77381467 0.78654607 0.76038414 0.77982162 0.67836334 0.64906624 0.62812588 0.50539457 0.51614047 0.50937568 0.44309433 0.43775475 0.50858506 0.55839082 0.41194473 0.50587482 0.4196960999999999 0.39749103 0.42809569 0.33316956
-0.40366919 -0.61250256 -0.77438015 -0.62467027 -0.87058323 -0.96719059 -0.97903958 -1.1457138999999998 -1.0789287 -1.3019739 -1.4584021999999999 -1.4309802 -1.6022496000000002 -1.6908282 -1.7542855 -1.739732 -1.9576504000000001 -1.9800571 -1.8878595 -1.8733188000000003 -1.6835565 -1.4389982 -1.1539 -0.664543 -0.39578689 -0.17948173 0.37501079 0.49110358 0.55337516 0.77381467 0.78654607 0.76038414 0.77982162 0.67836334 0.64906624 0.62812588 0.50539457 0.51614047 0.50937568 0.44309433 0.43775475 0.50858506 0.55839082 0.41194473 0.50587482 0.4196960999999999 0.39749103 0.42809569 0.33316956 0.35165567
-0.61250256 -0.77438015 -0.62467027 -0.87058323 -0.96719059 -0.97903958 -1.1457138999999998 -1.0789287 -1.3019739 -1.4584021999999999 -1.4309802 -1.6022496000000002 -1.6908282 -1.7542855 -1.739732 -1.9576504000000001 -1.9800571 -1.8878595 -1.8733188000000003 -1.6835565 -1.4389982 -1.1539 -0.664543 -0.39578689 -0.17948173 0.37501079 0.49110358 0.55337516 0.77381467 0.78654607 0.76038414 0.77982162 0.67836334 0.64906624 0.62812588 0.50539457 0.51614047 0.50937568 0.44309433 0.43775475 0.50858506 0.55839082 0.41194473 0.50587482 0.4196960999999999 0.39749103 0.42809569 0.33316956 0.35165567 0.24182589
-0.77438015 -0.62467027 -0.87058323 -0.96719059 -0.97903958 -1.1457138999999998 -1.0789287 -1.3019739 -1.4584021999999999 -1.4309802 -1.6022496000000002 -1.6908282 -1.7542855 -1.739732 -1.9576504000000001 -1.9800571 -1.8878595 -1.8733188000000003 -1.6835565 -1.4389982 -1.1539 -0.664543 -0.39578689 -0.17948173 0.37501079 0.49110358 0.55337516 0.77381467 0.78654607 0.76038414 0.77982162 0.67836334 0.64906624 0.62812588 0.50539457 0.51614047 0.50937568 0.44309433 0.43775475 0.50858506 0.55839082 0.41194473 0.50587482 0.4196960999999999 0.39749103 0.42809569 0.33316956 0.35165567 0.24182589 0.25573068
-0.62467027 -0.87058323 -0.96719059 -0.97903958 -1.1457138999999998 -1.0789287 -1.3019739 -1.4584021999999999 -1.4309802 -1.6022496000000002 -1.6908282 -1.7542855 -1.739732 -1.9576504000000001 -1.9800571 -1.8878595 -1.8733188000000003 -1.6835565 -1.4389982 -1.1539 -0.664543 -0.39578689 -0.17948173 0.37501079 0.49110358 0.55337516 0.77381467 0.78654607 0.76038414 0.77982162 0.67836334 0.64906624 0.62812588 0.50539457 0.51614047 0.50937568 0.44309433 0.43775475 0.50858506 0.55839082 0.41194473 0.50587482 0.4196960999999999 0.39749103 0.42809569 0.33316956 0.35165567 0.24182589 0.25573068 0.21702394
-0.87058323 -0.96719059 -0.97903958 -1.1457138999999998 -1.0789287 -1.3019739 -1.4584021999999999 -1.4309802 -1.6022496000000002 -1.6908282 -1.7542855 -1.739732 -1.9576504000000001 -1.9800571 -1.8878595 -1.8733188000000003 -1.6835565 -1.4389982 -1.1539 -0.664543 -0.39578689 -0.17948173 0.37501079 0.49110358 0.55337516 0.77381467 0.78654607 0.76038414 0.77982162 0.67836334 0.64906624 0.62812588 0.50539457 0.51614047 0.50937568 0.44309433 0.43775475 0.50858506 0.55839082 0.41194473 0.50587482 0.4196960999999999 0.39749103 0.42809569 0.33316956 0.35165567 0.24182589 0.25573068 0.21702394 0.08043679599999999
-0.96719059 -0.97903958 -1.1457138999999998 -1.0789287 -1.3019739 -1.4584021999999999 -1.4309802 -1.6022496000000002 -1.6908282 -1.7542855 -1.739732 -1.9576504000000001 -1.9800571 -1.8878595 -1.8733188000000003 -1.6835565 -1.4389982 -1.1539 -0.664543 -0.39578689 -0.17948173 0.37501079 0.49110358 0.55337516 0.77381467 0.78654607 0.76038414 0.77982162 0.67836334 0.64906624 0.62812588 0.50539457 0.51614047 0.50937568 0.44309433 0.43775475 0.50858506 0.55839082 0.41194473 0.50587482 0.4196960999999999 0.39749103 0.42809569 0.33316956 0.35165567 0.24182589 0.25573068 0.21702394 0.08043679599999999 0.13614363
-0.97903958 -1.1457138999999998 -1.0789287 -1.3019739 -1.4584021999999999 -1.4309802 -1.6022496000000002 -1.6908282 -1.7542855 -1.739732 -1.9576504000000001 -1.9800571 -1.8878595 -1.8733188000000003 -1.6835565 -1.4389982 -1.1539 -0.664543 -0.39578689 -0.17948173 0.37501079 0.49110358 0.55337516 0.77381467 0.78654607 0.76038414 0.77982162 0.67836334 0.64906624 0.62812588 0.50539457 0.51614047 0.50937568 0.44309433 0.43775475 0.50858506 0.55839082 0.41194473 0.50587482 0.4196960999999999 0.39749103 0.42809569 0.33316956 0.35165567 0.24182589 0.25573068 0.21702394 0.08043679599999999 0.13614363 0.14117822
-1.1457138999999998 -1.0789287 -1.3019739 -1.4584021999999999 -1.4309802 -1.6022496000000002 -1.6908282 -1.7542855 -1.739732 -1.9576504000000001 -1.9800571 -1.8878595 -1.8733188000000003 -1.6835565 -1.4389982 -1.1539 -0.664543 -0.39578689 -0.17948173 0.37501079 0.49110358 0.55337516 0.77381467 0.78654607 0.76038414 0.77982162 0.67836334 0.64906624 0.62812588 0.50539457 0.51614047 0.50937568 0.44309433 0.43775475 0.50858506 0.55839082 0.41194473 0.50587482 0.4196960999999999 0.39749103 0.42809569 0.33316956 0.35165567 0.24182589 0.25573068 0.21702394 0.08043679599999999 0.13614363 0.14117822 0.16918029999999998
-1.0789287 -1.3019739 -1.4584021999999999 -1.4309802 -1.6022496000000002 -1.6908282 -1.7542855 -1.739732 -1.9576504000000001 -1.9800571 -1.8878595 -1.8733188000000003 -1.6835565 -1.4389982 -1.1539 -0.664543 -0.39578689 -0.17948173 0.37501079 0.49110358 0.55337516 0.77381467 0.78654607 0.76038414 0.77982162 0.67836334 0.64906624 0.62812588 0.50539457 0.51614047 0.50937568 0.44309433 0.43775475 0.50858506 0.55839082 0.41194473 0.50587482 0.4196960999999999 0.39749103 0.42809569 0.33316956 0.35165567 0.24182589 0.25573068 0.21702394 0.08043679599999999 0.13614363 0.14117822 0.16918029999999998 0.11719156
-1.3019739 -1.4584021999999999 -1.4309802 -1.6022496000000002 -1.6908282 -1.7542855 -1.739732 -1.9576504000000001 -1.9800571 -1.8878595 -1.8733188000000003 -1.6835565 -1.4389982 -1.1539 -0.664543 -0.39578689 -0.17948173 0.37501079 0.49110358 0.55337516 0.77381467 0.78654607 0.76038414 0.77982162 0.67836334 0.64906624 0.62812588 0.50539457 0.51614047 0.50937568 0.44309433 0.43775475 0.50858506 0.55839082 0.41194473 0.50587482 0.4196960999999999 0.39749103 0.42809569 0.33316956 0.35165567 0.24182589 0.25573068 0.21702394 0.08043679599999999 0.13614363 0.14117822 0.16918029999999998 0.11719156 0.2054532
-1.4584021999999999 -1.4309802 -1.6022496000000002 -1.6908282 -1.7542855 -1.739732 -1.9576504000000001 -1.9800571 -1.8878595 -1.8733188000000003 -1.6835565 -1.4389982 -1.1539 -0.664543 -0.39578689 -0.17948173 0.37501079 0.49110358 0.55337516 0.77381467 0.78654607 0.76038414 0.77982162 0.67836334 0.64906624 0.62812588 0.50539457 0.51614047 0.50937568 0.44309433 0.43775475 0.50858506 0.55839082 0.41194473 0.50587482 0.4196960999999999 0.39749103 0.42809569 0.33316956 0.35165567 0.24182589 0.25573068 0.21702394 0.08043679599999999 0.13614363 0.14117822 0.16918029999999998 0.11719156 0.2054532 0.50159919
-1.4309802 -1.6022496000000002 -1.6908282 -1.7542855 -1.739732 -1.9576504000000001 -1.9800571 -1.8878595 -1.8733188000000003 -1.6835565 -1.4389982 -1.1539 -0.664543 -0.39578689 -0.17948173 0.37501079 0.49110358 0.55337516 0.77381467 0.78654607 0.76038414 0.77982162 0.67836334 0.64906624 0.62812588 0.50539457 0.51614047 0.50937568 0.44309433 0.43775475 0.50858506 0.55839082 0.41194473 0.50587482 0.4196960999999999 0.39749103 0.42809569 0.33316956 0.35165567 0.24182589 0.25573068 0.21702394 0.08043679599999999 0.13614363 0.14117822 0.16918029999999998 0.11719156 0.2054532 0.50159919 0.57490406
-1.6022496000000002 -1.6908282 -1.7542855 -1.739732 -1.9576504000000001 -1.9800571 -1.8878595 -1.8733188000000003 -1.6835565 -1.4389982 -1.1539 -0.664543 -0.39578689 -0.17948173 0.37501079 0.49110358 0.55337516 0.77381467 0.78654607 0.76038414 0.77982162 0.67836334 0.64906624 0.62812588 0.50539457 0.51614047 0.50937568 0.44309433 0.43775475 0.50858506 0.55839082 0.41194473 0.50587482 0.4196960999999999 0.39749103 0.42809569 0.33316956 0.35165567 0.24182589 0.25573068 0.21702394 0.08043679599999999 0.13614363 0.14117822 0.16918029999999998 0.11719156 0.2054532 0.50159919 0.57490406 0.56978084
-1.6908282 -1.7542855 -1.739732 -1.9576504000000001 -1.9800571 -1.8878595 -1.8733188000000003 -1.6835565 -1.4389982 -1.1539 -0.664543 -0.39578689 -0.17948173 0.37501079 0.49110358 0.55337516 0.77381467 0.78654607 0.76038414 0.77982162 0.67836334 0.64906624 0.62812588 0.50539457 0.51614047 0.50937568 0.44309433 0.43775475 0.50858506 0.55839082 0.41194473 0.50587482 0.4196960999999999 0.39749103 0.42809569 0.33316956 0.35165567 0.24182589 0.25573068 0.21702394 0.08043679599999999 0.13614363 0.14117822 0.16918029999999998 0.11719156 0.2054532 0.50159919 0.57490406 0.56978084 0.45648774
-1.7542855 -1.739732 -1.9576504000000001 -1.9800571 -1.8878595 -1.8733188000000003 -1.6835565 -1.4389982 -1.1539 -0.664543 -0.39578689 -0.17948173 0.37501079 0.49110358 0.55337516 0.77381467 0.78654607 0.76038414 0.77982162 0.67836334 0.64906624 0.62812588 0.50539457 0.51614047 0.50937568 0.44309433 0.43775475 0.50858506 0.55839082 0.41194473 0.50587482 0.4196960999999999 0.39749103 0.42809569 0.33316956 0.35165567 0.24182589 0.25573068 0.21702394 0.08043679599999999 0.13614363 0.14117822 0.16918029999999998 0.11719156 0.2054532 0.50159919 0.57490406 0.56978084 0.45648774 0.29058154
-1.739732 -1.9576504000000001 -1.9800571 -1.8878595 -1.8733188000000003 -1.6835565 -1.4389982 -1.1539 -0.664543 -0.39578689 -0.17948173 0.37501079 0.49110358 0.55337516 0.77381467 0.78654607 0.76038414 0.77982162 0.67836334 0.64906624 0.62812588 0.50539457 0.51614047 0.50937568 0.44309433 0.43775475 0.50858506 0.55839082 0.41194473 0.50587482 0.4196960999999999 0.39749103 0.42809569 0.33316956 0.35165567 0.24182589 0.25573068 0.21702394 0.08043679599999999 0.13614363 0.14117822 0.16918029999999998 0.11719156 0.2054532 0.50159919 0.57490406 0.56978084 0.45648774 0.29058154 0.17774619
-1.9576504000000001 -1.9800571 -1.8878595 -1.8733188000000003 -1.6835565 -1.4389982 -1.1539 -0.664543 -0.39578689 -0.17948173 0.37501079 0.49110358 0.55337516 0.77381467 0.78654607 0.76038414 0.77982162 0.67836334 0.64906624 0.62812588 0.50539457 0.51614047 0.50937568 0.44309433 0.43775475 0.50858506 0.55839082 0.41194473 0.50587482 0.4196960999999999 0.39749103 0.42809569 0.33316956 0.35165567 0.24182589 0.25573068 0.21702394 0.08043679599999999 0.13614363 0.14117822 0.16918029999999998 0.11719156 0.2054532 0.50159919 0.57490406 0.56978084 0.45648774 0.29058154 0.17774619 -0.035324659
-1.9800571 -1.8878595 -1.8733188000000003 -1.6835565 -1.4389982 -1.1539 -0.664543 -0.39578689 -0.17948173 0.37501079 0.49110358 0.55337516 0.77381467 0.78654607 0.76038414 0.77982162 0.67836334 0.64906624 0.62812588 0.50539457 0.51614047 0.50937568 0.44309433 0.43775475 0.50858506 0.55839082 0.41194473 0.50587482 0.4196960999999999 0.39749103 0.42809569 0.33316956 0.35165567 0.24182589 0.25573068 0.21702394 0.08043679599999999 0.13614363 0.14117822 0.16918029999999998 0.11719156 0.2054532 0.50159919 0.57490406 0.56978084 0.45648774 0.29058154 0.17774619 -0.035324659 -0.10457349
-1.8878595 -1.8733188000000003 -1.6835565 -1.4389982 -1.1539 -0.664543 -0.39578689 -0.17948173 0.37501079 0.49110358 0.55337516 0.77381467 0.78654607 0.76038414 0.77982162 0.67836334 0.64906624 0.62812588 0.50539457 0.51614047 0.50937568 0.44309433 0.43775475 0.50858506 0.55839082 0.41194473 0.50587482 0.4196960999999999 0.39749103 0.42809569 0.33316956 0.35165567 0.24182589 0.25573068 0.21702394 0.08043679599999999 0.13614363 0.14117822 0.16918029999999998 0.11719156 0.2054532 0.50159919 0.57490406 0.56978084 0.45648774 0.29058154 0.17774619 -0.035324659 -0.10457349 0.063707074
-1.8733188000000003 -1.6835565 -1.4389982 -1.1539 -0.664543 -0.39578689 -0.17948173 0.37501079 0.49110358 0.55337516 0.77381467 0.78654607 0.76038414 0.77982162 0.67836334 0.64906624 0.62812588 0.50539457 0.51614047 0.50937568 0.44309433 0.43775475 0.50858506 0.55839082 0.41194473 0.50587482 0.4196960999999999 0.39749103 0.42809569 0.33316956 0.35165567 0.24182589 0.25573068 0.21702394 0.08043679599999999 0.13614363 0.14117822 0.16918029999999998 0.11719156 0.2054532 0.50159919 0.57490406 0.56978084 0.45648774 0.29058154 0.17774619 -0.035324659 -0.10457349 0.063707074 -0.0064037312
-1.6835565 -1.4389982 -1.1539 -0.664543 -0.39578689 -0.17948173 0.37501079 0.49110358 0.55337516 0.77381467 0.78654607 0.76038414 0.77982162 0.67836334 0.64906624 0.62812588 0.50539457 0.51614047 0.50937568 0.44309433 0.43775475 0.50858506 0.55839082 0.41194473 0.50587482 0.4196960999999999 0.39749103 0.42809569 0.33316956 0.35165567 0.24182589 0.25573068 0.21702394 0.08043679599999999 0.13614363 0.14117822 0.16918029999999998 0.11719156 0.2054532 0.50159919 0.57490406 0.56978084 0.45648774 0.29058154 0.17774619 -0.035324659 -0.10457349 0.063707074 -0.0064037312 -0.29534326
-1.4389982 -1.1539 -0.664543 -0.39578689 -0.17948173 0.37501079 0.49110358 0.55337516 0.77381467 0.78654607 0.76038414 0.77982162 0.67836334 0.64906624 0.62812588 0.50539457 0.51614047 0.50937568 0.44309433 0.43775475 0.50858506 0.55839082 0.41194473 0.50587482 0.4196960999999999 0.39749103 0.42809569 0.33316956 0.35165567 0.24182589 0.25573068 0.21702394 0.08043679599999999 0.13614363 0.14117822 0.16918029999999998 0.11719156 0.2054532 0.50159919 0.57490406 0.56978084 0.45648774 0.29058154 0.17774619 -0.035324659 -0.10457349 0.063707074 -0.0064037312 -0.29534326 -0.10858442
-1.1539 -0.664543 -0.39578689 -0.17948173 0.37501079 0.49110358 0.55337516 0.77381467 0.78654607 0.76038414 0.77982162 0.67836334 0.64906624 0.62812588 0.50539457 0.51614047 0.50937568 0.44309433 0.43775475 0.50858506 0.55839082 0.41194473 0.50587482 0.4196960999999999 0.39749103 0.42809569 0.33316956 0.35165567 0.24182589 0.25573068 0.21702394 0.08043679599999999 0.13614363 0.14117822 0.16918029999999998 0.11719156 0.2054532 0.50159919 0.57490406 0.56978084 0.45648774 0.29058154 0.17774619 -0.035324659 -0.10457349 0.063707074 -0.0064037312 -0.29534326 -0.10858442 -0.09702703900000001
-0.664543 -0.39578689 -0.17948173 0.37501079 0.49110358 0.55337516 0.77381467 0.78654607 0.76038414 0.77982162 0.67836334 0.64906624 0.62812588 0.50539457 0.51614047 0.50937568 0.44309433 0.43775475 0.50858506 0.55839082 0.41194473 0.50587482 0.4196960999999999 0.39749103 0.42809569 0.33316956 0.35165567 0.24182589 0.25573068 0.21702394 0.08043679599999999 0.13614363 0.14117822 0.16918029999999998 0.11719156 0.2054532 0.50159919 0.57490406 0.56978084 0.45648774 0.29058154 0.17774619 -0.035324659 -0.10457349 0.063707074 -0.0064037312 -0.29534326 -0.10858442 -0.09702703900000001 -0.17846205
-0.39578689 -0.17948173 0.37501079 0.49110358 0.55337516 0.77381467 0.78654607 0.76038414 0.77982162 0.67836334 0.64906624 0.62812588 0.50539457 0.51614047 0.50937568 0.44309433 0.43775475 0.50858506 0.55839082 0.41194473 0.50587482 0.4196960999999999 0.39749103 0.42809569 0.33316956 0.35165567 0.24182589 0.25573068 0.21702394 0.08043679599999999 0.13614363 0.14117822 0.16918029999999998 0.11719156 0.2054532 0.50159919 0.57490406 0.56978084 0.45648774 0.29058154 0.17774619 -0.035324659 -0.10457349 0.063707074 -0.0064037312 -0.29534326 -0.10858442 -0.09702703900000001 -0.17846205 -0.20516451
-0.17948173 0.37501079 0.49110358 0.55337516 0.77381467 0.78654607 0.76038414 0.77982162 0.67836334 0.64906624 0.62812588 0.50539457 0.51614047 0.50937568 0.44309433 0.43775475 0.50858506 0.55839082 0.41194473 0.50587482 0.4196960999999999 0.39749103 0.42809569 0.33316956 0.35165567 0.24182589 0.25573068 0.21702394 0.08043679599999999 0.13614363 0.14117822 0.16918029999999998 0.11719156 0.2054532 0.50159919 0.57490406 0.56978084 0.45648774 0.29058154 0.17774619 -0.035324659 -0.10457349 0.063707074 -0.0064037312 -0.29534326 -0.10858442 -0.09702703900000001 -0.17846205 -0.20516451 -0.12417323
0.37501079 0.49110358 0.55337516 0.77381467 0.78654607 0.76038414 0.77982162 0.67836334 0.64906624 0.62812588 0.50539457 0.51614047 0.50937568 0.44309433 0.43775475 0.50858506 0.55839082 0.41194473 0.50587482 0.4196960999999999 0.39749103 0.42809569 0.33316956 0.35165567 0.24182589 0.25573068 0.21702394 0.08043679599999999 0.13614363 0.14117822 0.16918029999999998 0.11719156 0.2054532 0.50159919 0.57490406 0.56978084 0.45648774 0.29058154 0.17774619 -0.035324659 -0.10457349 0.063707074 -0.0064037312 -0.29534326 -0.10858442 -0.09702703900000001 -0.17846205 -0.20516451 -0.12417323 -0.11820595
0.49110358 0.55337516 0.77381467 0.78654607 0.76038414 0.77982162 0.67836334 0.64906624 0.62812588 0.50539457 0.51614047 0.50937568 0.44309433 0.43775475 0.50858506 0.55839082 0.41194473 0.50587482 0.4196960999999999 0.39749103 0.42809569 0.33316956 0.35165567 0.24182589 0.25573068 0.21702394 0.08043679599999999 0.13614363 0.14117822 0.16918029999999998 0.11719156 0.2054532 0.50159919 0.57490406 0.56978084 0.45648774 0.29058154 0.17774619 -0.035324659 -0.10457349 0.063707074 -0.0064037312 -0.29534326 -0.10858442 -0.09702703900000001 -0.17846205 -0.20516451 -0.12417323 -0.11820595 -0.28969662
0.55337516 0.77381467 0.78654607 0.76038414 0.77982162 0.67836334 0.64906624 0.62812588 0.50539457 0.51614047 0.50937568 0.44309433 0.43775475 0.50858506 0.55839082 0.41194473 0.50587482 0.4196960999999999 0.39749103 0.42809569 0.33316956 0.35165567 0.24182589 0.25573068 0.21702394 0.08043679599999999 0.13614363 0.14117822 0.16918029999999998 0.11719156 0.2054532 0.50159919 0.57490406 0.56978084 0.45648774 0.29058154 0.17774619 -0.035324659 -0.10457349 0.063707074 -0.0064037312 -0.29534326 -0.10858442 -0.09702703900000001 -0.17846205 -0.20516451 -0.12417323 -0.11820595 -0.28969662 -0.21914425
0.77381467 0.78654607 0.76038414 0.77982162 0.67836334 0.64906624 0.62812588 0.50539457 0.51614047 0.50937568 0.44309433 0.43775475 0.50858506 0.55839082 0.41194473 0.50587482 0.4196960999999999 0.39749103 0.42809569 0.33316956 0.35165567 0.24182589 0.25573068 0.21702394 0.08043679599999999 0.13614363 0.14117822 0.16918029999999998 0.11719156 0.2054532 0.50159919 0.57490406 0.56978084 0.45648774 0.29058154 0.17774619 -0.035324659 -0.10457349 0.063707074 -0.0064037312 -0.29534326 -0.10858442 -0.09702703900000001 -0.17846205 -0.20516451 -0.12417323 -0.11820595 -0.28969662 -0.21914425 -0.19021517
0.78654607 0.76038414 0.77982162 0.67836334 0.64906624 0.62812588 0.50539457 0.51614047 0.50937568 0.44309433 0.43775475 0.50858506 0.55839082 0.41194473 0.50587482 0.4196960999999999 0.39749103 0.42809569 0.33316956 0.35165567 0.24182589 0.25573068 0.21702394 0.08043679599999999 0.13614363 0.14117822 0.16918029999999998 0.11719156 0.2054532 0.50159919 0.57490406 0.56978084 0.45648774 0.29058154 0.17774619 -0.035324659 -0.10457349 0.063707074 -0.0064037312 -0.29534326 -0.10858442 -0.09702703900000001 -0.17846205 -0.20516451 -0.12417323 -0.11820595 -0.28969662 -0.21914425 -0.19021517 -0.32017728
0.76038414 0.77982162 0.67836334 0.64906624 0.62812588 0.50539457 0.51614047 0.50937568 0.44309433 0.43775475 0.50858506 0.55839082 0.41194473 0.50587482 0.4196960999999999 0.39749103 0.42809569 0.33316956 0.35165567 0.24182589 0.25573068 0.21702394 0.08043679599999999 0.13614363 0.14117822 0.16918029999999998 0.11719156 0.2054532 0.50159919 0.57490406 0.56978084 0.45648774 0.29058154 0.17774619 -0.035324659 -0.10457349 0.063707074 -0.0064037312 -0.29534326 -0.10858442 -0.09702703900000001 -0.17846205 -0.20516451 -0.12417323 -0.11820595 -0.28969662 -0.21914425 -0.19021517 -0.32017728 -0.06439803200000001
0.77982162 0.67836334 0.64906624 0.62812588 0.50539457 0.51614047 0.50937568 0.44309433 0.43775475 0.50858506 0.55839082 0.41194473 0.50587482 0.4196960999999999 0.39749103 0.42809569 0.33316956 0.35165567 0.24182589 0.25573068 0.21702394 0.08043679599999999 0.13614363 0.14117822 0.16918029999999998 0.11719156 0.2054532 0.50159919 0.57490406 0.56978084 0.45648774 0.29058154 0.17774619 -0.035324659 -0.10457349 0.063707074 -0.0064037312 -0.29534326 -0.10858442 -0.09702703900000001 -0.17846205 -0.20516451 -0.12417323 -0.11820595 -0.28969662 -0.21914425 -0.19021517 -0.32017728 -0.06439803200000001 0.21960221
