0.26158131 0.57982062 1.049515 1.9877269 2.351593 1.5728266000000002 0.94027428 0.32373143 -0.34593676 -0.44660582 -0.41008189 -0.27481066 -0.27100607 -0.40467442 -0.43797211 -0.69019346 -0.86851522 -0.97683688 -1.0213827 -0.91656244 -1.0851553999999999 -1.0981035 -0.98283369 -1.0841018999999998 -0.99017372 -1.0746440000000002 -1.3029688999999998 -1.1845412 -1.2652706 -1.5934673000000001 -1.5880397 -1.5621622 -1.7960880000000001 -1.7979178 -1.6160417 -1.7217673999999998 -1.8776348999999999 -1.7415771 -1.471459 -1.3423815000000001 -1.4278667 -1.3991789 -1.1230322 -0.88907817 -0.58593046 -0.30253136 -0.37770729999999997 -0.32970261 0.1143453 0.27374261
0.57982062 1.049515 1.9877269 2.351593 1.5728266000000002 0.94027428 0.32373143 -0.34593676 -0.44660582 -0.41008189 -0.27481066 -0.27100607 -0.40467442 -0.43797211 -0.69019346 -0.86851522 -0.97683688 -1.0213827 -0.91656244 -1.0851553999999999 -1.0981035 -0.98283369 -1.0841018999999998 -0.99017372 -1.0746440000000002 -1.3029688999999998 -1.1845412 -1.2652706 -1.5934673000000001 -1.5880397 -1.5621622 -1.7960880000000001 -1.7979178 -1.6160417 -1.7217673999999998 -1.8776348999999999 -1.7415771 -1.471459 -1.3423815000000001 -1.4278667 -1.3991789 -1.1230322 -0.88907817 -0.58593046 -0.30253136 -0.37770729999999997 -0.32970261 0.1143453 0.27374261 0.17509953
1.049515 1.9877269 2.351593 1.5728266000000002 0.94027428 0.32373143 -0.34593676 -0.44660582 -0.41008189 -0.27481066 -0.27100607 -0.40467442 -0.43797211 -0.69019346 -0.86851522 -0.97683688 -1.0213827 -0.91656244 -1.0851553999999999 -1.0981035 -0.98283369 -1.0841018999999998 -0.99017372 -1.0746440000000002 -1.3029688999999998 -1.1845412 -1.2652706 -1.5934673000000001 -1.5880397 -1.5621622 -1.7960880000000001 -1.7979178 -1.6160417 -1.7217673999999998 -1.8776348999999999 -1.7415771 -1.471459 -1.3423815000000001 -1.4278667 -1.3991789 -1.1230322 -0.88907817 -0.58593046 -0.30253136 -0.37770729999999997 -0.32970261 0.1143453 0.27374261 0.17509953 0.32060039
1.9877269 2.351593 1.5728266000000002 0.94027428 0.32373143 -0.34593676 -0.44660582 -0.41008189 -0.27481066 -0.27100607 -0.40467442 -0.43797211 -0.69019346 -0.86851522 -0.97683688 -1.0213827 -0.91656244 -1.0851553999999999 -1.0981035 -0.98283369 -1.0841018999999998 -0.99017372 -1.0746440000000002 -1.3029688999999998 -1.1845412 -1.2652706 -1.5934673000000001 -1.5880397 -1.5621622 -1.7960880000000001 -1.7979178 -1.6160417 -1.7217673999999998 -1.8776348999999999 -1.7415771 -1.471459 -1.3423815000000001 -1.4278667 -1.3991789 -1.1230322 -0.88907817 -0.58593046 -0.30253136 -0.37770729999999997 -0.32970261 0.1143453 0.27374261 0.17509953 0.32060039 0.47897163
2.351593 1.5728266000000002 0.94027428 0.32373143 -0.34593676 -0.44660582 -0.41008189 -0.27481066 -0.27100607 -0.40467442 -0.43797211 -0.69019346 -0.86851522 -0.97683688 -1.0213827 -0.91656244 -1.0851553999999999 -1.0981035 -0.98283369 -1.0841018999999998 -0.99017372 -1.0746440000000002 -1.3029688999999998 -1.1845412 -1.2652706 -1.5934673000000001 -1.5880397 -1.5621622 -1.7960880000000001 -1.7979178 -1.6160417 -1.7217673999999998 -1.8776348999999999 -1.7415771 -1.471459 -1.3423815000000001 -1.4278667 -1.3991789 -1.1230322 -0.88907817 -0.58593046 -0.30253136 -0.37770729999999997 -0.32970261 0.1143453 0.27374261 0.17509953 0.32060039 0.47897163 0.47730162
1.5728266000000002 0.94027428 0.32373143 -0.34593676 -0.44660582 -0.41008189 -0.27481066 -0.27100607 -0.40467442 -0.43797211 -0.69019346 -0.86851522 -0.97683688 -1.0213827 -0.91656244 -1.0851553999999999 -1.0981035 -0.98283369 -1.0841018999999998 -0.99017372 -1.0746440000000002 -1.3029688999999998 -1.1845412 -1.2652706 -1.5934673000000001 -1.5880397 -1.5621622 -1.7960880000000001 -1.7979178 -1.6160417 -1.7217673999999998 -1.8776348999999999 -1.7415771 -1.471459 -1.3423815000000001 -1.4278667 -1.3991789 -1.1230322 -0.88907817 -0.58593046 -0.30253136 -0.37770729999999997 -0.32970261 0.1143453 0.27374261 0.17509953 0.32060039 0.47897163 0.47730162 0.33470487
0.94027428 0.32373143 -0.34593676 -0.44660582 -0.41008189 -0.27481066 -0.27100607 -0.40467442 -0.43797211 -0.69019346 -0.86851522 -0.97683688 -1.0213827 -0.91656244 -1.0851553999999999 -1.0981035 -0.98283369 -1.0841018999999998 -0.99017372 -1.0746440000000002 -1.3029688999999998 -1.1845412 -1.2652706 -1.5934673000000001 -1.5880397 -1.5621622 -1.7960880000000001 -1.7979178 -1.6160417 -1.7217673999999998 -1.8776348999999999 -1.7415771 -1.471459 -1.3423815000000001 -1.4278667 -1.3991789 -1.1230322 -0.88907817 -0.58593046 -0.30253136 -0.37770729999999997 -0.32970261 0.1143453 0.27374261 0.17509953 0.32060039 0.47897163 0.47730162 0.33470487 0.25807723
0.32373143 -0.34593676 -0.44660582 -0.41008189 -0.27481066 -0.27100607 -0.40467442 -0.43797211 -0.69019346 -0.86851522 -0.97683688 -1.0213827 -0.91656244 -1.0851553999999999 -1.0981035 -0.98283369 -1.0841018999999998 -0.99017372 -1.0746440000000002 -1.3029688999999998 -1.1845412 -1.2652706 -1.5934673000000001 -1.5880397 -1.5621622 -1.7960880000000001 -1.7979178 -1.6160417 -1.7217673999999998 -1.8776348999999999 -1.7415771 -1.471459 -1.3423815000000001 -1.4278667 -1.3991789 -1.1230322 -0.88907817 -0.58593046 -0.30253136 -0.37770729999999997 -0.32970261 0.1143453 0.27374261 0.17509953 0.32060039 0.47897163 0.47730162 0.33470487 0.25807723 0.41822047
-0.34593676 -0.44660582 -0.41008189 -0.27481066 -0.27100607 -0.40467442 -0.43797211 -0.69019346 -0.86851522 -0.97683688 -1.0213827 -0.91656244 -1.0851553999999999 -1.0981035 -0.98283369 -1.0841018999999998 -0.99017372 -1.0746440000000002 -1.3029688999999998 -1.1845412 -1.2652706 -1.5934673000000001 -1.5880397 -1.5621622 -1.7960880000000001 -1.7979178 -1.6160417 -1.7217673999999998 -1.8776348999999999 -1.7415771 -1.471459 -1.3423815000000001 -1.4278667 -1.3991789 -1.1230322 -0.88907817 -0.58593046 -0.30253136 -0.37770729999999997 -0.32970261 0.1143453 0.27374261 0.17509953 0.32060039 0.47897163 0.47730162 0.33470487 0.25807723 0.41822047 0.45570312
-0.44660582 -0.41008189 -0.27481066 -0.27100607 -0.40467442 -0.43797211 -0.69019346 -0.86851522 -0.97683688 -1.0213827 -0.91656244 -1.0851553999999999 -1.0981035 -0.98283369 -1.0841018999999998 -0.99017372 -1.0746440000000002 -1.3029688999999998 -1.1845412 -1.2652706 -1.5934673000000001 -1.5880397 -1.5621622 -1.7960880000000001 -1.7979178 -1.6160417 -1.7217673999999998 -1.8776348999999999 -1.7415771 -1.471459 -1.3423815000000001 -1.4278667 -1.3991789 -1.1230322 -0.88907817 -0.58593046 -0.30253136 -0.37770729999999997 -0.32970261 0.1143453 0.27374261 0.17509953 0.32060039 0.47897163 0.47730162 0.33470487 0.25807723 0.41822047 0.45570312 0.56325579
-0.41008189 -0.27481066 -0.27100607 -0.40467442 -0.43797211 -0.69019346 -0.86851522 -0.97683688 -1.0213827 -0.91656244 -1.0851553999999999 -1.0981035 -0.98283369 -1.0841018999999998 -0.99017372 -1.0746440000000002 -1.3029688999999998 -1.1845412 -1.2652706 -1.5934673000000001 -1.5880397 -1.5621622 -1.7960880000000001 -1.7979178 -1.6160417 -1.7217673999999998 -1.8776348999999999 -1.7415771 -1.471459 -1.3423815000000001 -1.4278667 -1.3991789 -1.1230322 -0.88907817 -0.58593046 -0.30253136 -0.37770729999999997 -0.32970261 0.1143453 0.27374261 0.17509953 0.32060039 0.47897163 0.47730162 0.33470487 0.25807723 0.41822047 0.45570312 0.56325579 0.64228937
-0.27481066 -0.27100607 -0.40467442 -0.43797211 -0.69019346 -0.86851522 -0.97683688 -1.0213827 -0.91656244 -1.0851553999999999 -1.0981035 -0.98283369 -1.0841018999999998 -0.99017372 -1.0746440000000002 -1.3029688999999998 -1.1845412 -1.2652706 -1.5934673000000001 -1.5880397 -1.5621622 -1.7960880000000001 -1.7979178 -1.6160417 -1.7217673999999998 -1.8776348999999999 -1.7415771 -1.471459 -1.3423815000000001 -1.4278667 -1.3991789 -1.1230322 -0.88907817 -0.58593046 -0.30253136 -0.37770729999999997 -0.32970261 0.1143453 0.27374261 0.17509953 0.32060039 0.47897163 0.47730162 0.33470487 0.25807723 0.41822047 0.45570312 0.56325579 0.64228937 0.48337443
-0.27100607 -0.40467442 -0.43797211 -0.69019346 -0.86851522 -0.97683688 -1.0213827 -0.91656244 -1.0851553999999999 -1.0981035 -0.98283369 -1.0841018999999998 -0.99017372 -1.0746440000000002 -1.3029688999999998 -1.1845412 -1.2652706 -1.5934673000000001 -1.5880397 -1.5621622 -1.7960880000000001 -1.7979178 -1.6160417 -1.7217673999999998 -1.8776348999999999 -1.7415771 -1.471459 -1.3423815000000001 -1.4278667 -1.3991789 -1.1230322 -0.88907817 -0.58593046 -0.30253136 -0.37770729999999997 -0.32970261 0.1143453 0.27374261 0.17509953 0.32060039 0.47897163 0.47730162 0.33470487 0.25807723 0.41822047 0.45570312 0.56325579 0.64228937 0.48337443 0.5977918000000001
-0.40467442 -0.43797211 -0.69019346 -0.86851522 -0.97683688 -1.0213827 -0.91656244 -1.0851553999999999 -1.0981035 -0.98283369 -1.0841018999999998 -0.99017372 -1.0746440000000002 -1.3029688999999998 -1.1845412 -1.2652706 -1.5934673000000001 -1.5880397 -1.5621622 -1.7960880000000001 -1.7979178 -1.6160417 -1.7217673999999998 -1.8776348999999999 -1.7415771 -1.471459 -1.3423815000000001 -1.4278667 -1.3991789 -1.1230322 -0.88907817 -0.58593046 -0.30253136 -0.37770729999999997 -0.32970261 0.1143453 0.27374261 0.17509953 0.32060039 0.47897163 0.47730162 0.33470487 0.25807723 0.41822047 0.45570312 0.56325579 0.64228937 0.48337443 0.5977918000000001 0.6160748
-0.43797211 -0.69019346 -0.86851522 -0.97683688 -1.0213827 -0.91656244 -1.0851553999999999 -1.0981035 -0.98283369 -1.0841018999999998 -0.99017372 -1.0746440000000002 -1.3029688999999998 -1.1845412 -1.2652706 -1.5934673000000001 -1.5880397 -1.5621622 -1.7960880000000001 -1.7979178 -1.6160417 -1.7217673999999998 -1.8776348999999999 -1.7415771 -1.471459 -1.3423815000000001 -1.4278667 -1.3991789 -1.1230322 -0.88907817 -0.58593046 -0.30253136 -0.37770729999999997 -0.32970261 0.1143453 0.27374261 0.17509953 0.32060039 0.47897163 0.47730162 0.33470487 0.25807723 0.41822047 0.45570312 0.56325579 0.64228937 0.48337443 0.5977918000000001 0.6160748 0.49379700000000004
-0.69019346 -0.86851522 -0.97683688 -1.0213827 -0.91656244 -1.0851553999999999 -1.0981035 -0.98283369 -1.0841018999999998 -0.99017372 -1.0746440000000002 -1.3029688999999998 -1.1845412 -1.2652706 -1.5934673000000001 -1.5880397 -1.5621622 -1.7960880000000001 -1.7979178 -1.6160417 -1.7217673999999998 -1.8776348999999999 -1.7415771 -1.471459 -1.3423815000000001 -1.4278667 -1.3991789 -1.1230322 -0.88907817 -0.58593046 -0.30253136 -0.37770729999999997 -0.32970261 0.1143453 0.27374261 0.17509953 0.32060039 0.47897163 0.47730162 0.33470487 0.25807723 0.41822047 0.45570312 0.56325579 0.64228937 0.48337443 0.5977918000000001 0.6160748 0.49379700000000004 0.5494111999999999
-0.86851522 -0.97683688 -1.0213827 -0.91656244 -1.0851553999999999 -1.0981035 -0.98283369 -1.0841018999999998 -0.99017372 -1.0746440000000002 -1.3029688999999998 -1.1845412 -1.2652706 -1.5934673000000001 -1.5880397 -1.5621622 -1.7960880000000001 -1.7979178 -1.6160417 -1.7217673999999998 -1.8776348999999999 -1.7415771 -1.471459 -1.3423815000000001 -1.4278667 -1.3991789 -1.1230322 -0.88907817 -0.58593046 -0.30253136 -0.37770729999999997 -0.32970261 0.1143453 0.27374261 0.17509953 0.32060039 0.47897163 0.47730162 0.33470487 0.25807723 0.41822047 0.45570312 0.56325579 0.64228937 0.48337443 0.5977918000000001 0.6160748 0.49379700000000004 0.5494111999999999 0.60733721
-0.97683688 -1.0213827 -0.91656244 -1.0851553999999999 -1.0981035 -0.98283369 -1.0841018999999998 -0.99017372 -1.0746440000000002 -1.3029688999999998 -1.1845412 -1.2652706 -1.5934673000000001 -1.5880397 -1.5621622 -1.7960880000000001 -1.7979178 -1.6160417 -1.7217673999999998 -1.8776348999999999 -1.7415771 -1.471459 -1.3423815000000001 -1.4278667 -1.3991789 -1.1230322 -0.88907817 -0.58593046 -0.30253136 -0.37770729999999997 -0.32970261 0.1143453 0.27374261 0.17509953 0.32060039 0.47897163 0.47730162 0.33470487 0.25807723 0.41822047 0.45570312 0.56325579 0.64228937 0.48337443 0.5977918000000001 0.6160748 0.49379700000000004 0.5494111999999999 0.60733721 0.79891833
-1.0213827 -0.91656244 -1.0851553999999999 -1.0981035 -0.98283369 -1.0841018999999998 -0.99017372 -1.0746440000000002 -1.3029688999999998 -1.1845412 -1.2652706 -1.5934673000000001 -1.5880397 -1.5621622 -1.7960880000000001 -1.7979178 -1.6160417 -1.7217673999999998 -1.8776348999999999 -1.7415771 -1.471459 -1.3423815000000001 -1.4278667 -1.3991789 -1.1230322 -0.88907817 -0.58593046 -0.30253136 -0.37770729999999997 -0.32970261 0.1143453 0.27374261 0.17509953 0.32060039 0.47897163 0.47730162 0.33470487 0.25807723 0.41822047 0.45570312 0.56325579 0.64228937 0.48337443 0.5977918000000001 0.6160748 0.49379700000000004 0.5494111999999999 0.60733721 0.79891833 0.69315162
-0.91656244 -1.0851553999999999 -1.0981035 -0.98283369 -1.0841018999999998 -0.99017372 -1.0746440000000002 -1.3029688999999998 -1.1845412 -1.2652706 -1.5934673000000001 -1.5880397 -1.5621622 -1.7960880000000001 -1.7979178 -1.6160417 -1.7217673999999998 -1.8776348999999999 -1.7415771 -1.471459 -1.3423815000000001 -1.4278667 -1.3991789 -1.1230322 -0.88907817 -0.58593046 -0.30253136 -0.37770729999999997 -0.32970261 0.1143453 0.27374261 0.17509953 0.32060039 0.47897163 0.47730162 0.33470487 0.25807723 0.41822047 0.45570312 0.56325579 0.64228937 0.48337443 0.5977918000000001 0.6160748 0.49379700000000004 0.5494111999999999 0.60733721 0.79891833 0.69315162 0.59396758
-1.0851553999999999 -1.0981035 -0.98283369 -1.0841018999999998 -0.99017372 -1.0746440000000002 -1.3029688999999998 -1.1845412 -1.2652706 -1.5934673000000001 -1.5880397 -1.5621622 -1.7960880000000001 -1.7979178 -1.6160417 -1.7217673999999998 -1.8776348999999999 -1.7415771 -1.471459 -1.3423815000000001 -1.4278667 -1.3991789 -1.1230322 -0.88907817 -0.58593046 -0.30253136 -0.37770729999999997 -0.32970261 0.1143453 0.27374261 0.17509953 0.32060039 0.47897163 0.47730162 0.33470487 0.25807723 0.41822047 0.45570312 0.56325579 0.64228937 0.48337443 0.5977918000000001 0.6160748 0.49379700000000004 0.5494111999999999 0.60733721 0.79891833 0.69315162 0.59396758 1.0173371999999998
-1.0981035 -0.98283369 -1.0841018999999998 -0.99017372 -1.0746440000000002 -1.3029688999999998 -1.1845412 -1.2652706 -1.5934673000000001 -1.5880397 -1.5621622 -1.7960880000000001 -1.7979178 -1.6160417 -1.7217673999999998 -1.8776348999999999 -1.7415771 -1.471459 -1.3423815000000001 -1.4278667 -1.3991789 -1.1230322 -0.88907817 -0.58593046 -0.30253136 -0.37770729999999997 -0.32970261 0.1143453 0.27374261 0.17509953 0.32060039 0.47897163 0.47730162 0.33470487 0.25807723 0.41822047 0.45570312 0.56325579 0.64228937 0.48337443 0.5977918000000001 0.6160748 0.49379700000000004 0.5494111999999999 0.60733721 0.79891833 0.69315162 0.59396758 1.0173371999999998 1.0964061
-0.98283369 -1.0841018999999998 -0.99017372 -1.0746440000000002 -1.3029688999999998 -1.1845412 -1.2652706 -1.5934673000000001 -1.5880397 -1.5621622 -1.7960880000000001 -1.7979178 -1.6160417 -1.7217673999999998 -1.8776348999999999 -1.7415771 -1.471459 -1.3423815000000001 -1.4278667 -1.3991789 -1.1230322 -0.88907817 -0.58593046 -0.30253136 -0.37770729999999997 -0.32970261 0.1143453 0.27374261 0.17509953 0.32060039 0.47897163 0.47730162 0.33470487 0.25807723 0.41822047 0.45570312 0.56325579 0.64228937 0.48337443 0.5977918000000001 0.6160748 0.49379700000000004 0.5494111999999999 0.60733721 0.79891833 0.69315162 0.59396758 1.0173371999999998 1.0964061 1.0066722
-1.0841018999999998 -0.99017372 -1.0746440000000002 -1.3029688999999998 -1.1845412 -1.2652706 -1.5934673000000001 -1.5880397 -1.5621622 -1.7960880000000001 -1.7979178 -1.6160417 -1.7217673999999998 -1.8776348999999999 -1.7415771 -1.471459 -1.3423815000000001 -1.4278667 -1.3991789 -1.1230322 -0.88907817 -0.58593046 -0.30253136 -0.37770729999999997 -0.32970261 0.1143453 0.27374261 0.17509953 0.32060039 0.47897163 0.47730162 0.33470487 0.25807723 0.41822047 0.45570312 0.56325579 0.64228937 0.48337443 0.5977918000000001 0.6160748 0.49379700000000004 0.5494111999999999 0.60733721 0.79891833 0.69315162 0.59396758 1.0173371999999998 1.0964061 1.0066722 1.1742992
-0.99017372 -1.0746440000000002 -1.3029688999999998 -1.1845412 -1.2652706 -1.5934673000000001 -1.5880397 -1.5621622 -1.7960880000000001 -1.7979178 -1.6160417 -1.7217673999999998 -1.8776348999999999 -1.7415771 -1.471459 -1.3423815000000001 -1.4278667 -1.3991789 -1.1230322 -0.88907817 -0.58593046 -0.30253136 -0.37770729999999997 -0.32970261 0.1143453 0.27374261 0.17509953 0.32060039 0.47897163 0.47730162 0.33470487 0.25807723 0.41822047 0.45570312 0.56325579 0.64228937 0.48337443 0.5977918000000001 0.6160748 0.49379700000000004 0.5494111999999999 0.60733721 0.79891833 0.69315162 0.59396758 1.0173371999999998 1.0964061 1.0066722 1.1742992 1.2658947
-1.0746440000000002 -1.3029688999999998 -1.1845412 -1.2652706 -1.5934673000000001 -1.5880397 -1.5621622 -1.7960880000000001 -1.7979178 -1.6160417 -1.7217673999999998 -1.8776348999999999 -1.7415771 -1.471459 -1.3423815000000001 -1.4278667 -1.3991789 -1.1230322 -0.88907817 -0.58593046 -0.30253136 -0.37770729999999997 -0.32970261 0.1143453 0.27374261 0.17509953 0.32060039 0.47897163 0.47730162 0.33470487 0.25807723 0.41822047 0.45570312 0.56325579 0.64228937 0.48337443 0.5977918000000001 0.6160748 0.49379700000000004 0.5494111999999999 0.60733721 0.79891833 0.69315162 0.59396758 1.0173371999999998 1.0964061 1.0066722 1.1742992 1.2658947 1.3794796
-1.3029688999999998 -1.1845412 -1.2652706 -1.5934673000000001 -1.5880397 -1.5621622 -1.7960880000000001 -1.7979178 -1.6160417 -1.7217673999999998 -1.8776348999999999 -1.7415771 -1.471459 -1.3423815000000001 -1.4278667 -1.3991789 -1.1230322 -0.88907817 -0.58593046 -0.30253136 -0.37770729999999997 -0.32970261 0.1143453 0.27374261 0.17509953 0.32060039 0.47897163 0.47730162 0.33470487 0.25807723 0.41822047 0.45570312 0.56325579 0.64228937 0.48337443 0.5977918000000001 0.6160748 0.49379700000000004 0.5494111999999999 0.60733721 0.79891833 0.69315162 0.59396758 1.0173371999999998 1.0964061 1.0066722 1.1742992 1.2658947 1.3794796 1.3662893
-1.1845412 -1.2652706 -1.5934673000000001 -1.5880397 -1.5621622 -1.7960880000000001 -1.7979178 -1.6160417 -1.7217673999999998 -1.8776348999999999 -1.7415771 -1.471459 -1.3423815000000001 -1.4278667 -1.3991789 -1.1230322 -0.88907817 -0.58593046 -0.30253136 -0.37770729999999997 -0.32970261 0.1143453 0.27374261 0.17509953 0.32060039 0.47897163 0.47730162 0.33470487 0.25807723 0.41822047 0.45570312 0.56325579 0.64228937 0.48337443 0.5977918000000001 0.6160748 0.49379700000000004 0.5494111999999999 0.60733721 0.79891833 0.69315162 0.59396758 1.0173371999999998 1.0964061 1.0066722 1.1742992 1.2658947 1.3794796 1.3662893 1.1347884
-1.2652706 -1.5934673000000001 -1.5880397 -1.5621622 -1.7960880000000001 -1.7979178 -1.6160417 -1.7217673999999998 -1.8776348999999999 -1.7415771 -1.471459 -1.3423815000000001 -1.4278667 -1.3991789 -1.1230322 -0.88907817 -0.58593046 -0.30253136 -0.37770729999999997 -0.32970261 0.1143453 0.27374261 0.17509953 0.32060039 0.47897163 0.47730162 0.33470487 0.25807723 0.41822047 0.45570312 0.56325579 0.64228937 0.48337443 0.5977918000000001 0.6160748 0.49379700000000004 0.5494111999999999 0.60733721 0.79891833 0.69315162 0.59396758 1.0173371999999998 1.0964061 1.0066722 1.1742992 1.2658947 1.3794796 1.3662893 1.1347884 1.2971863000000001
-1.5934673000000001 -1.5880397 -1.5621622 -1.7960880000000001 -1.7979178 -1.6160417 -1.7217673999999998 -1.8776348999999999 -1.7415771 -1.471459 -1.3423815000000001 -1.4278667 -1.3991789 -1.1230322 -0.88907817 -0.58593046 -0.30253136 -0.37770729999999997 -0.32970261 0.1143453 0.27374261 0.17509953 0.32060039 0.47897163 0.47730162 0.33470487 0.25807723 0.41822047 0.45570312 0.56325579 0.64228937 0.48337443 0.5977918000000001 0.6160748 0.49379700000000004 0.5494111999999999 0.60733721 0.79891833 0.69315162 0.59396758 1.0173371999999998 1.0964061 1.0066722 1.1742992 1.2658947 1.3794796 1.3662893 1.1347884 1.2971863000000001 1.3840377000000001
-1.5880397 -1.5621622 -1.7960880000000001 -1.7979178 -1.6160417 -1.7217673999999998 -1.8776348999999999 -1.7415771 -1.471459 -1.3423815000000001 -1.4278667 -1.3991789 -1.1230322 -0.88907817 -0.58593046 -0.30253136 -0.37770729999999997 -0.32970261 0.1143453 0.27374261 0.17509953 0.32060039 0.47897163 0.47730162 0.33470487 0.25807723 0.41822047 0.45570312 0.56325579 0.64228937 0.48337443 0.5977918000000001 0.6160748 0.49379700000000004 0.5494111999999999 0.60733721 0.79891833 0.69315162 0.59396758 1.0173371999999998 1.0964061 1.0066722 1.1742992 1.2658947 1.3794796 1.3662893 1.1347884 1.2971863000000001 1.3840377000000001 0.99097189
-1.5621622 -1.7960880000000001 -1.7979178 -1.6160417 -1.7217673999999998 -1.8776348999999999 -1.7415771 -1.471459 -1.3423815000000001 -1.4278667 -1.3991789 -1.1230322 -0.88907817 -0.58593046 -0.30253136 -0.37770729999999997 -0.32970261 0.1143453 0.27374261 0.17509953 0.32060039 0.47897163 0.47730162 0.33470487 0.25807723 0.41822047 0.45570312 0.56325579 0.64228937 0.48337443 0.5977918000000001 0.6160748 0.49379700000000004 0.5494111999999999 0.60733721 0.79891833 0.69315162 0.59396758 1.0173371999999998 1.0964061 1.0066722 1.1742992 1.2658947 1.3794796 1.3662893 1.1347884 1.2971863000000001 1.3840377000000001 0.99097189 1.0083584
-1.7960880000000001 -1.7979178 -1.6160417 -1.7217673999999998 -1.8776348999999999 -1.7415771 -1.471459 -1.3423815000000001 -1.4278667 -1.3991789 -1.1230322 -0.88907817 -0.58593046 -0.30253136 -0.37770729999999997 -0.32970261 0.1143453 0.27374261 0.17509953 0.32060039 0.47897163 0.47730162 0.33470487 0.25807723 0.41822047 0.45570312 0.56325579 0.64228937 0.48337443 0.5977918000000001 0.6160748 0.49379700000000004 0.5494111999999999 0.60733721 0.79891833 0.69315162 0.59396758 1.0173371999999998 1.0964061 1.0066722 1.1742992 1.2658947 1.3794796 1.3662893 1.1347884 1.2971863000000001 1.3840377000000001 0.99097189 1.0083584 0.967726
-1.7979178 -1.6160417 -1.7217673999999998 -1.8776348999999999 -1.7415771 -1.471459 -1.3423815000000001 -1.4278667 -1.3991789 -1.1230322 -0.88907817 -0.58593046 -0.30253136 -0.37770729999999997 -0.32970261 0.1143453 0.27374261 0.17509953 0.32060039 0.47897163 0.47730162 0.33470487 0.25807723 0.41822047 0.45570312 0.56325579 0.64228937 0.48337443 0.5977918000000001 0.6160748 0.49379700000000004 0.5494111999999999 0.60733721 0.79891833 0.69315162 0.59396758 1.0173371999999998 1.0964061 1.0066722 1.1742992 1.2658947 1.3794796 1.3662893 1.1347884 1.2971863000000001 1.3840377000000001 0.99097189 1.0083584 0.967726 0.54369075
-1.6160417 -1.7217673999999998 -1.8776348999999999 -1.7415771 -1.471459 -1.3423815000000001 -1.4278667 -1.3991789 -1.1230322 -0.88907817 -0.58593046 -0.30253136 -0.37770729999999997 -0.32970261 0.1143453 0.27374261 0.17509953 0.32060039 0.47897163 0.47730162 0.33470487 0.25807723 0.41822047 0.45570312 0.56325579 0.64228937 0.48337443 0.5977918000000001 0.6160748 0.49379700000000004 0.5494111999999999 0.60733721 0.79891833 0.69315162 0.59396758 1.0173371999999998 1.0964061 1.0066722 1.1742992 1.2658947 1.3794796 1.3662893 1.1347884 1.2971863000000001 1.3840377000000001 0.99097189 1.0083584 0.967726 0.54369075 0.55492192
-1.7217673999999998 -1.8776348999999999 -1.7415771 -1.471459 -1.3423815000000001 -1.4278667 -1.3991789 -1.1230322 -0.88907817 -0.58593046 -0.30253136 -0.37770729999999997 -0.32970261 0.1143453 0.27374261 0.17509953 0.32060039 0.47897163 0.47730162 0.33470487 0.25807723 0.41822047 0.45570312 0.56325579 0.64228937 0.48337443 0.5977918000000001 0.6160748 0.49379700000000004 0.5494111999999999 0.60733721 0.79891833 0.69315162 0.59396758 1.0173371999999998 1.0964061 1.0066722 1.1742992 1.2658947 1.3794796 1.3662893 1.1347884 1.2971863000000001 1.3840377000000001 0.99097189 1.0083584 0.967726 0.54369075 0.55492192 0.59882356
-1.8776348999999999 -1.7415771 -1.471459 -1.3423815000000001 -1.4278667 -1.3991789 -1.1230322 -0.88907817 -0.58593046 -0.30253136 -0.37770729999999997 -0.32970261 0.1143453 0.27374261 0.17509953 0.32060039 0.47897163 0.47730162 0.33470487 0.25807723 0.41822047 0.45570312 0.56325579 0.64228937 0.48337443 0.5977918000000001 0.6160748 0.49379700000000004 0.5494111999999999 0.60733721 0.79891833 0.69315162 0.59396758 1.0173371999999998 1.0964061 1.0066722 1.1742992 1.2658947 1.3794796 1.3662893 1.1347884 1.2971863000000001 1.3840377000000001 0.99097189 1.0083584 0.967726 0.54369075 0.55492192 0.59882356 0.63388732
-1.7415771 -1.471459 -1.3423815000000001 -1.4278667 -1.3991789 -1.1230322 -0.88907817 -0.58593046 -0.30253136 -0.37770729999999997 -0.32970261 0.1143453 0.27374261 0.17509953 0.32060039 0.47897163 0.47730162 0.33470487 0.25807723 0.41822047 0.45570312 0.56325579 0.64228937 0.48337443 0.5977918000000001 0.6160748 0.49379700000000004 0.5494111999999999 0.60733721 0.79891833 0.69315162 0.59396758 1.0173371999999998 1.0964061 1.0066722 1.1742992 1.2658947 1.3794796 1.3662893 1.1347884 1.2971863000000001 1.3840377000000001 0.99097189 1.0083584 0.967726 0.54369075 0.55492192 0.59882356 0.63388732 0.61612792
-1.471459 -1.3423815000000001 -1.4278667 -1.3991789 -1.1230322 -0.88907817 -0.58593046 -0.30253136 -0.37770729999999997 -0.32970261 0.1143453 0.27374261 0.17509953 0.32060039 0.47897163 0.47730162 0.33470487 0.25807723 0.41822047 0.45570312 0.56325579 0.64228937 0.48337443 0.5977918000000001 0.6160748 0.49379700000000004 0.5494111999999999 0.60733721 0.79891833 0.69315162 0.59396758 1.0173371999999998 1.0964061 1.0066722 1.1742992 1.2658947 1.3794796 1.3662893 1.1347884 1.2971863000000001 1.3840377000000001 0.99097189 1.0083584 0.967726 0.54369075 0.55492192 0.59882356 0.63388732 0.61612792 0.42185906
-1.3423815000000001 -1.4278667 -1.3991789 -1.1230322 -0.88907817 -0.58593046 -0.30253136 -0.37770729999999997 -0.32970261 0.1143453 0.27374261 0.17509953 0.32060039 0.47897163 0.47730162 0.33470487 0.25807723 0.41822047 0.45570312 0.56325579 0.64228937 0.48337443 0.5977918000000001 0.6160748 0.49379700000000004 0.5494111999999999 0.60733721 0.79891833 0.69315162 0.59396758 1.0173371999999998 1.0964061 1.0066722 1.1742992 1.2658947 1.3794796 1.3662893 1.1347884 1.2971863000000001 1.3840377000000001 0.99097189 1.0083584 0.967726 0.54369075 0.55492192 0.59882356 0.63388732 0.61612792 0.42185906 0.60035149
-1.4278667 -1.3991789 -1.1230322 -0.88907817 -0.58593046 -0.30253136 -0.37770729999999997 -0.32970261 0.1143453 0.27374261 0.17509953 0.32060039 0.47897163 0.47730162 0.33470487 0.25807723 0.41822047 0.45570312 0.56325579 0.64228937 0.48337443 0.5977918000000001 0.6160748 0.49379700000000004 0.5494111999999999 0.60733721 0.79891833 0.69315162 0.59396758 1.0173371999999998 1.0964061 1.0066722 1.1742992 1.2658947 1.3794796 1.3662893 1.1347884 1.2971863000000001 1.3840377000000001 0.99097189 1.0083584 0.967726 0.54369075 0.55492192 0.59882356 0.63388732 0.61612792 0.42185906 0.60035149 0.63078487
-1.3991789 -1.1230322 -0.88907817 -0.58593046 -0.30253136 -0.37770729999999997 -0.32970261 0.1143453 0.27374261 0.17509953 0.32060039 0.47897163 0.47730162 0.33470487 0.25807723 0.41822047 0.45570312 0.56325579 0.64228937 0.48337443 0.5977918000000001 0.6160748 0.49379700000000004 0.5494111999999999 0.60733721 0.79891833 0.69315162 0.59396758 1.0173371999999998 1.0964061 1.0066722 1.1742992 1.2658947 1.3794796 1.3662893 1.1347884 1.2971863000000001 1.3840377000000001 0.99097189 1.0083584 0.967726 0.54369075 0.55492192 0.59882356 0.63388732 0.61612792 0.42185906 0.60035149 0.63078487 0.38842756
-1.1230322 -0.88907817 -0.58593046 -0.30253136 -0.37770729999999997 -0.32970261 0.1143453 0.27374261 0.17509953 0.32060039 0.47897163 0.47730162 0.33470487 0.25807723 0.41822047 0.45570312 0.56325579 0.64228937 0.48337443 0.5977918000000001 0.6160748 0.49379700000000004 0.5494111999999999 0.60733721 0.79891833 0.69315162 0.59396758 1.0173371999999998 1.0964061 1.0066722 1.1742992 1.2658947 1.3794796 1.3662893 1.1347884 1.2971863000000001 1.3840377000000001 0.99097189 1.0083584 0.967726 0.54369075 0.55492192 0.59882356 0.63388732 0.61612792 0.42185906 0.60035149 0.63078487 0.38842756 0.46511282
-0.88907817 -0.58593046 -0.30253136 -0.37770729999999997 -0.32970261 0.1143453 0.27374261 0.17509953 0.32060039 0.47897163 0.47730162 0.33470487 0.25807723 0.41822047 0.45570312 0.56325579 0.64228937 0.48337443 0.5977918000000001 0.6160748 0.49379700000000004 0.5494111999999999 0.60733721 0.79891833 0.69315162 0.59396758 1.0173371999999998 1.0964061 1.0066722 1.1742992 1.2658947 1.3794796 1.3662893 1.1347884 1.2971863000000001 1.3840377000000001 0.99097189 1.0083584 0.967726 0.54369075 0.55492192 0.59882356 0.63388732 0.61612792 0.42185906 0.60035149 0.63078487 0.38842756 0.46511282 0.54775412
-0.58593046 -0.30253136 -0.37770729999999997 -0.32970261 0.1143453 0.27374261 0.17509953 0.32060039 0.47897163 0.47730162 0.33470487 0.25807723 0.41822047 0.45570312 0.56325579 0.64228937 0.48337443 0.5977918000000001 0.6160748 0.49379700000000004 0.5494111999999999 0.60733721 0.79891833 0.69315162 0.59396758 1.0173371999999998 1.0964061 1.0066722 1.1742992 1.2658947 1.3794796 1.3662893 1.1347884 1.2971863000000001 1.3840377000000001 0.99097189 1.0083584 0.967726 0.54369075 0.55492192 0.59882356 0.63388732 0.61612792 0.42185906 0.60035149 0.63078487 0.38842756 0.46511282 0.54775412 0.43415843
-0.30253136 -0.37770729999999997 -0.32970261 0.1143453 0.27374261 0.17509953 0.32060039 0.47897163 0.47730162 0.33470487 0.25807723 0.41822047 0.45570312 0.56325579 0.64228937 0.48337443 0.5977918000000001 0.6160748 0.49379700000000004 0.5494111999999999 0.60733721 0.79891833 0.69315162 0.59396758 1.0173371999999998 1.0964061 1.0066722 1.1742992 1.2658947 1.3794796 1.3662893 1.1347884 1.2971863000000001 1.3840377000000001 0.99097189 1.0083584 0.967726 0.54369075 0.55492192 0.59882356 0.63388732 0.61612792 0.42185906 0.60035149 0.63078487 0.38842756 0.46511282 0.54775412 0.43415843 0.58759586
-0.37770729999999997 -0.32970261 0.1143453 0.27374261 0.17509953 0.32060039 0.47897163 0.47730162 0.33470487 0.25807723 0.41822047 0.45570312 0.56325579 0.64228937 0.48337443 0.5977918000000001 0.6160748 0.49379700000000004 0.5494111999999999 0.60733721 0.79891833 0.69315162 0.59396758 1.0173371999999998 1.0964061 1.0066722 1.1742992 1.2658947 1.3794796 1.3662893 1.1347884 1.2971863000000001 1.3840377000000001 0.99097189 1.0083584 0.967726 0.54369075 0.55492192 0.59882356 0.63388732 0.61612792 0.42185906 0.60035149 0.63078487 0.38842756 0.46511282 0.54775412 0.43415843 0.58759586 0.54978831
