0.50871874 0.80968553 1.5528082 1.9816869 1.6243391 1.3628215 1.4121392 0.97378315 0.19369358 -0.26377121 -0.33644359 -0.18884968 -0.13284071 -0.33661722 -0.4250242 -0.28995731 -0.29897631 -0.46744708 -0.57800441 -0.69952074 -0.86183236 -0.86605151 -0.77510883 -0.83778941 -0.89223761 -0.82736862 -0.93749266 -1.0886334 -0.99066033 -0.96243856 -1.1148195 -1.1860607 -1.2780785 -1.3766805 -1.3227071000000001 -1.3948869 -1.6385415 -1.6768466 -1.5463976000000001 -1.4945178999999997 -1.4416409 -1.3426498 -1.3243083 -1.2979785 -1.1485216 -1.0493542 -0.98199143 -0.69182456 -0.43398086 -0.57437581
0.80968553 1.5528082 1.9816869 1.6243391 1.3628215 1.4121392 0.97378315 0.19369358 -0.26377121 -0.33644359 -0.18884968 -0.13284071 -0.33661722 -0.4250242 -0.28995731 -0.29897631 -0.46744708 -0.57800441 -0.69952074 -0.86183236 -0.86605151 -0.77510883 -0.83778941 -0.89223761 -0.82736862 -0.93749266 -1.0886334 -0.99066033 -0.96243856 -1.1148195 -1.1860607 -1.2780785 -1.3766805 -1.3227071000000001 -1.3948869 -1.6385415 -1.6768466 -1.5463976000000001 -1.4945178999999997 -1.4416409 -1.3426498 -1.3243083 -1.2979785 -1.1485216 -1.0493542 -0.98199143 -0.69182456 -0.43398086 -0.57437581 -0.63900538
1.5528082 1.9816869 1.6243391 1.3628215 1.4121392 0.97378315 0.19369358 -0.26377121 -0.33644359 -0.18884968 -0.13284071 -0.33661722 -0.4250242 -0.28995731 -0.29897631 -0.46744708 -0.57800441 -0.69952074 -0.86183236 -0.86605151 -0.77510883 -0.83778941 -0.89223761 -0.82736862 -0.93749266 -1.0886334 -0.99066033 -0.96243856 -1.1148195 -1.1860607 -1.2780785 -1.3766805 -1.3227071000000001 -1.3948869 -1.6385415 -1.6768466 -1.5463976000000001 -1.4945178999999997 -1.4416409 -1.3426498 -1.3243083 -1.2979785 -1.1485216 -1.0493542 -0.98199143 -0.69182456 -0.43398086 -0.57437581 -0.63900538 -0.11974766
1.9816869 1.6243391 1.3628215 1.4121392 0.97378315 0.19369358 -0.26377121 -0.33644359 -0.18884968 -0.13284071 -0.33661722 -0.4250242 -0.28995731 -0.29897631 -0.46744708 -0.57800441 -0.69952074 -0.86183236 -0.86605151 -0.77510883 -0.83778941 -0.89223761 -0.82736862 -0.93749266 -1.0886334 -0.99066033 -0.96243856 -1.1148195 -1.1860607 -1.2780785 -1.3766805 -1.3227071000000001 -1.3948869 -1.6385415 -1.6768466 -1.5463976000000001 -1.4945178999999997 -1.4416409 -1.3426498 -1.3243083 -1.2979785 -1.1485216 -1.0493542 -0.98199143 -0.69182456 -0.43398086 -0.57437581 -0.63900538 -0.11974766 0.35123945
1.6243391 1.3628215 1.4121392 0.97378315 0.19369358 -0.26377121 -0.33644359 -0.18884968 -0.13284071 -0.33661722 -0.4250242 -0.28995731 -0.29897631 -0.46744708 -0.57800441 -0.69952074 -0.86183236 -0.86605151 -0.77510883 -0.83778941 -0.89223761 -0.82736862 -0.93749266 -1.0886334 -0.99066033 -0.96243856 -1.1148195 -1.1860607 -1.2780785 -1.3766805 -1.3227071000000001 -1.3948869 -1.6385415 -1.6768466 -1.5463976000000001 -1.4945178999999997 -1.4416409 -1.3426498 -1.3243083 -1.2979785 -1.1485216 -1.0493542 -0.98199143 -0.69182456 -0.43398086 -0.57437581 -0.63900538 -0.11974766 0.35123945 0.18562812
1.3628215 1.4121392 0.97378315 0.19369358 -0.26377121 -0.33644359 -0.18884968 -0.13284071 -0.33661722 -0.4250242 -0.28995731 -0.29897631 -0.46744708 -0.57800441 -0.69952074 -0.86183236 -0.86605151 -0.77510883 -0.83778941 -0.89223761 -0.82736862 -0.93749266 -1.0886334 -0.99066033 -0.96243856 -1.1148195 -1.1860607 -1.2780785 -1.3766805 -1.3227071000000001 -1.3948869 -1.6385415 -1.6768466 -1.5463976000000001 -1.4945178999999997 -1.4416409 -1.3426498 -1.3243083 -1.2979785 -1.1485216 -1.0493542 -0.98199143 -0.69182456 -0.43398086 -0.57437581 -0.63900538 -0.11974766 0.35123945 0.18562812 0.10283419
1.4121392 0.97378315 0.19369358 -0.26377121 -0.33644359 -0.18884968 -0.13284071 -0.33661722 -0.4250242 -0.28995731 -0.29897631 -0.46744708 -0.57800441 -0.69952074 -0.86183236 -0.86605151 -0.77510883 -0.83778941 -0.89223761 -0.82736862 -0.93749266 -1.0886334 -0.99066033 -0.96243856 -1.1148195 -1.1860607 -1.2780785 -1.3766805 -1.3227071000000001 -1.3948869 -1.6385415 -1.6768466 -1.5463976000000001 -1.4945178999999997 -1.4416409 -1.3426498 -1.3243083 -1.2979785 -1.1485216 -1.0493542 -0.98199143 -0.69182456 -0.43398086 -0.57437581 -0.63900538 -0.11974766 0.35123945 0.18562812 0.10283419 0.48600248
0.97378315 0.19369358 -0.26377121 -0.33644359 -0.18884968 -0.13284071 -0.33661722 -0.4250242 -0.28995731 -0.29897631 -0.46744708 -0.57800441 -0.69952074 -0.86183236 -0.86605151 -0.77510883 -0.83778941 -0.89223761 -0.82736862 -0.93749266 -1.0886334 -0.99066033 -0.96243856 -1.1148195 -1.1860607 -1.2780785 -1.3766805 -1.3227071000000001 -1.3948869 -1.6385415 -1.6768466 -1.5463976000000001 -1.4945178999999997 -1.4416409 -1.3426498 -1.3243083 -1.2979785 -1.1485216 -1.0493542 -0.98199143 -0.69182456 -0.43398086 -0.57437581 -0.63900538 -0.11974766 0.35123945 0.18562812 0.10283419 0.48600248 0.57407331
0.19369358 -0.26377121 -0.33644359 -0.18884968 -0.13284071 -0.33661722 -0.4250242 -0.28995731 -0.29897631 -0.46744708 -0.57800441 -0.69952074 -0.86183236 -0.86605151 -0.77510883 -0.83778941 -0.89223761 -0.82736862 -0.93749266 -1.0886334 -0.99066033 -0.96243856 -1.1148195 -1.1860607 -1.2780785 -1.3766805 -1.3227071000000001 -1.3948869 -1.6385415 -1.6768466 -1.5463976000000001 -1.4945178999999997 -1.4416409 -1.3426498 -1.3243083 -1.2979785 -1.1485216 -1.0493542 -0.98199143 -0.69182456 -0.43398086 -0.57437581 -0.63900538 -0.11974766 0.35123945 0.18562812 0.10283419 0.48600248 0.57407331 0.40397434
-0.26377121 -0.33644359 -0.18884968 -0.13284071 -0.33661722 -0.4250242 -0.28995731 -0.29897631 -0.46744708 -0.57800441 -0.69952074 -0.86183236 -0.86605151 -0.77510883 -0.83778941 -0.89223761 -0.82736862 -0.93749266 -1.0886334 -0.99066033 -0.96243856 -1.1148195 -1.1860607 -1.2780785 -1.3766805 -1.3227071000000001 -1.3948869 -1.6385415 -1.6768466 -1.5463976000000001 -1.4945178999999997 -1.4416409 -1.3426498 -1.3243083 -1.2979785 -1.1485216 -1.0493542 -0.98199143 -0.69182456 -0.43398086 -0.57437581 -0.63900538 -0.11974766 0.35123945 0.18562812 0.10283419 0.48600248 0.57407331 0.40397434 0.5345357
-0.33644359 -0.18884968 -0.13284071 -0.33661722 -0.4250242 -0.28995731 -0.29897631 -0.46744708 -0.57800441 -0.69952074 -0.86183236 -0.86605151 -0.77510883 -0.83778941 -0.89223761 -0.82736862 -0.93749266 -1.0886334 -0.99066033 -0.96243856 -1.1148195 -1.1860607 -1.2780785 -1.3766805 -1.3227071000000001 -1.3948869 -1.6385415 -1.6768466 -1.5463976000000001 -1.4945178999999997 -1.4416409 -1.3426498 -1.3243083 -1.2979785 -1.1485216 -1.0493542 -0.98199143 -0.69182456 -0.43398086 -0.57437581 -0.63900538 -0.11974766 0.35123945 0.18562812 0.10283419 0.48600248 0.57407331 0.40397434 0.5345357 0.58675421
-0.18884968 -0.13284071 -0.33661722 -0.4250242 -0.28995731 -0.29897631 -0.46744708 -0.57800441 -0.69952074 -0.86183236 -0.86605151 -0.77510883 -0.83778941 -0.89223761 -0.82736862 -0.93749266 -1.0886334 -0.99066033 -0.96243856 -1.1148195 -1.1860607 -1.2780785 -1.3766805 -1.3227071000000001 -1.3948869 -1.6385415 -1.6768466 -1.5463976000000001 -1.4945178999999997 -1.4416409 -1.3426498 -1.3243083 -1.2979785 -1.1485216 -1.0493542 -0.98199143 -0.69182456 -0.43398086 -0.57437581 -0.63900538 -0.11974766 0.35123945 0.18562812 0.10283419 0.48600248 0.57407331 0.40397434 0.5345357 0.58675421 0.52181179
-0.13284071 -0.33661722 -0.4250242 -0.28995731 -0.29897631 -0.46744708 -0.57800441 -0.69952074 -0.86183236 -0.86605151 -0.77510883 -0.83778941 -0.89223761 -0.82736862 -0.93749266 -1.0886334 -0.99066033 -0.96243856 -1.1148195 -1.1860607 -1.2780785 -1.3766805 -1.3227071000000001 -1.3948869 -1.6385415 -1.6768466 -1.5463976000000001 -1.4945178999999997 -1.4416409 -1.3426498 -1.3243083 -1.2979785 -1.1485216 -1.0493542 -0.98199143 -0.69182456 -0.43398086 -0.57437581 -0.63900538 -0.11974766 0.35123945 0.18562812 0.10283419 0.48600248 0.57407331 0.40397434 0.5345357 0.58675421 0.52181179 0.72175519
-0.33661722 -0.4250242 -0.28995731 -0.29897631 -0.46744708 -0.57800441 -0.69952074 -0.86183236 -0.86605151 -0.77510883 -0.83778941 -0.89223761 -0.82736862 -0.93749266 -1.0886334 -0.99066033 -0.96243856 -1.1148195 -1.1860607 -1.2780785 -1.3766805 -1.3227071000000001 -1.3948869 -1.6385415 -1.6768466 -1.5463976000000001 -1.4945178999999997 -1.4416409 -1.3426498 -1.3243083 -1.2979785 -1.1485216 -1.0493542 -0.98199143 -0.69182456 -0.43398086 -0.57437581 -0.63900538 -0.11974766 0.35123945 0.18562812 0.10283419 0.48600248 0.57407331 0.40397434 0.5345357 0.58675421 0.52181179 0.72175519 0.6848584
-0.4250242 -0.28995731 -0.29897631 -0.46744708 -0.57800441 -0.69952074 -0.86183236 -0.86605151 -0.77510883 -0.83778941 -0.89223761 -0.82736862 -0.93749266 -1.0886334 -0.99066033 -0.96243856 -1.1148195 -1.1860607 -1.2780785 -1.3766805 -1.3227071000000001 -1.3948869 -1.6385415 -1.6768466 -1.5463976000000001 -1.4945178999999997 -1.4416409 -1.3426498 -1.3243083 -1.2979785 -1.1485216 -1.0493542 -0.98199143 -0.69182456 -0.43398086 -0.57437581 -0.63900538 -0.11974766 0.35123945 0.18562812 0.10283419 0.48600248 0.57407331 0.40397434 0.5345357 0.58675421 0.52181179 0.72175519 0.6848584 0.35160214
-0.28995731 -0.29897631 -0.46744708 -0.57800441 -0.69952074 -0.86183236 -0.86605151 -0.77510883 -0.83778941 -0.89223761 -0.82736862 -0.93749266 -1.0886334 -0.99066033 -0.96243856 -1.1148195 -1.1860607 -1.2780785 -1.3766805 -1.3227071000000001 -1.3948869 -1.6385415 -1.6768466 -1.5463976000000001 -1.4945178999999997 -1.4416409 -1.3426498 -1.3243083 -1.2979785 -1.1485216 -1.0493542 -0.98199143 -0.69182456 -0.43398086 -0.57437581 -0.63900538 -0.11974766 0.35123945 0.18562812 0.10283419 0.48600248 0.57407331 0.40397434 0.5345357 0.58675421 0.52181179 0.72175519 0.6848584 0.35160214 0.43725082
-0.29897631 -0.46744708 -0.57800441 -0.69952074 -0.86183236 -0.86605151 -0.77510883 -0.83778941 -0.89223761 -0.82736862 -0.93749266 -1.0886334 -0.99066033 -0.96243856 -1.1148195 -1.1860607 -1.2780785 -1.3766805 -1.3227071000000001 -1.3948869 -1.6385415 -1.6768466 -1.5463976000000001 -1.4945178999999997 -1.4416409 -1.3426498 -1.3243083 -1.2979785 -1.1485216 -1.0493542 -0.98199143 -0.69182456 -0.43398086 -0.57437581 -0.63900538 -0.11974766 0.35123945 0.18562812 0.10283419 0.48600248 0.57407331 0.40397434 0.5345357 0.58675421 0.52181179 0.72175519 0.6848584 0.35160214 0.43725082 0.71485022
-0.46744708 -0.57800441 -0.69952074 -0.86183236 -0.86605151 -0.77510883 -0.83778941 -0.89223761 -0.82736862 -0.93749266 -1.0886334 -0.99066033 -0.96243856 -1.1148195 -1.1860607 -1.2780785 -1.3766805 -1.3227071000000001 -1.3948869 -1.6385415 -1.6768466 -1.5463976000000001 -1.4945178999999997 -1.4416409 -1.3426498 -1.3243083 -1.2979785 -1.1485216 -1.0493542 -0.98199143 -0.69182456 -0.43398086 -0.57437581 -0.63900538 -0.11974766 0.35123945 0.18562812 0.10283419 0.48600248 0.57407331 0.40397434 0.5345357 0.58675421 0.52181179 0.72175519 0.6848584 0.35160214 0.43725082 0.71485022 0.69202144
-0.57800441 -0.69952074 -0.86183236 -0.86605151 -0.77510883 -0.83778941 -0.89223761 -0.82736862 -0.93749266 -1.0886334 -0.99066033 -0.96243856 -1.1148195 -1.1860607 -1.2780785 -1.3766805 -1.3227071000000001 -1.3948869 -1.6385415 -1.6768466 -1.5463976000000001 -1.4945178999999997 -1.4416409 -1.3426498 -1.3243083 -1.2979785 -1.1485216 -1.0493542 -0.98199143 -0.69182456 -0.43398086 -0.57437581 -0.63900538 -0.11974766 0.35123945 0.18562812 0.10283419 0.48600248 0.57407331 0.40397434 0.5345357 0.58675421 0.52181179 0.72175519 0.6848584 0.35160214 0.43725082 0.71485022 0.69202144 0.60707653
-0.69952074 -0.86183236 -0.86605151 -0.77510883 -0.83778941 -0.89223761 -0.82736862 -0.93749266 -1.0886334 -0.99066033 -0.96243856 -1.1148195 -1.1860607 -1.2780785 -1.3766805 -1.3227071000000001 -1.3948869 -1.6385415 -1.6768466 -1.5463976000000001 -1.4945178999999997 -1.4416409 -1.3426498 -1.3243083 -1.2979785 -1.1485216 -1.0493542 -0.98199143 -0.69182456 -0.43398086 -0.57437581 -0.63900538 -0.11974766 0.35123945 0.18562812 0.10283419 0.48600248 0.57407331 0.40397434 0.5345357 0.58675421 0.52181179 0.72175519 0.6848584 0.35160214 0.43725082 0.71485022 0.69202144 0.60707653 0.60400921
-0.86183236 -0.86605151 -0.77510883 -0.83778941 -0.89223761 -0.82736862 -0.93749266 -1.0886334 -0.99066033 -0.96243856 -1.1148195 -1.1860607 -1.2780785 -1.3766805 -1.3227071000000001 -1.3948869 -1.6385415 -1.6768466 -1.5463976000000001 -1.4945178999999997 -1.4416409 -1.3426498 -1.3243083 -1.2979785 -1.1485216 -1.0493542 -0.98199143 -0.69182456 -0.43398086 -0.57437581 -0.63900538 -0.11974766 0.35123945 0.18562812 0.10283419 0.48600248 0.57407331 0.40397434 0.5345357 0.58675421 0.52181179 0.72175519 0.6848584 0.35160214 0.43725082 0.71485022 0.69202144 0.60707653 0.60400921 0.65274229
-0.86605151 -0.77510883 -0.83778941 -0.89223761 -0.82736862 -0.93749266 -1.0886334 -0.99066033 -0.96243856 -1.1148195 -1.1860607 -1.2780785 -1.3766805 -1.3227071000000001 -1.3948869 -1.6385415 -1.6768466 -1.5463976000000001 -1.4945178999999997 -1.4416409 -1.3426498 -1.3243083 -1.2979785 -1.1485216 -1.0493542 -0.98199143 -0.69182456 -0.43398086 -0.57437581 -0.63900538 -0.11974766 0.35123945 0.18562812 0.10283419 0.48600248 0.57407331 0.40397434 0.5345357 0.58675421 0.52181179 0.72175519 0.6848584 0.35160214 0.43725082 0.71485022 0.69202144 0.60707653 0.60400921 0.65274229 0.72514513
-0.77510883 -0.83778941 -0.89223761 -0.82736862 -0.93749266 -1.0886334 -0.99066033 -0.96243856 -1.1148195 -1.1860607 -1.2780785 -1.3766805 -1.3227071000000001 -1.3948869 -1.6385415 -1.6768466 -1.5463976000000001 -1.4945178999999997 -1.4416409 -1.3426498 -1.3243083 -1.2979785 -1.1485216 -1.0493542 -0.98199143 -0.69182456 -0.43398086 -0.57437581 -0.63900538 -0.11974766 0.35123945 0.18562812 0.10283419 0.48600248 0.57407331 0.40397434 0.5345357 0.58675421 0.52181179 0.72175519 0.6848584 0.35160214 0.43725082 0.71485022 0.69202144 0.60707653 0.60400921 0.65274229 0.72514513 0.68730458
-0.83778941 -0.89223761 -0.82736862 -0.93749266 -1.0886334 -0.99066033 -0.96243856 -1.1148195 -1.1860607 -1.2780785 -1.3766805 -1.3227071000000001 -1.3948869 -1.6385415 -1.6768466 -1.5463976000000001 -1.4945178999999997 -1.4416409 -1.3426498 -1.3243083 -1.2979785 -1.1485216 -1.0493542 -0.98199143 -0.69182456 -0.43398086 -0.57437581 -0.63900538 -0.11974766 0.35123945 0.18562812 0.10283419 0.48600248 0.57407331 0.40397434 0.5345357 0.58675421 0.52181179 0.72175519 0.6848584 0.35160214 0.43725082 0.71485022 0.69202144 0.60707653 0.60400921 0.65274229 0.72514513 0.68730458 0.71820754
-0.89223761 -0.82736862 -0.93749266 -1.0886334 -0.99066033 -0.96243856 -1.1148195 -1.1860607 -1.2780785 -1.3766805 -1.3227071000000001 -1.3948869 -1.6385415 -1.6768466 -1.5463976000000001 -1.4945178999999997 -1.4416409 -1.3426498 -1.3243083 -1.2979785 -1.1485216 -1.0493542 -0.98199143 -0.69182456 -0.43398086 -0.57437581 -0.63900538 -0.11974766 0.35123945 0.18562812 0.10283419 0.48600248 0.57407331 0.40397434 0.5345357 0.58675421 0.52181179 0.72175519 0.6848584 0.35160214 0.43725082 0.71485022 0.69202144 0.60707653 0.60400921 0.65274229 0.72514513 0.68730458 0.71820754 0.87549638
-0.82736862 -0.93749266 -1.0886334 -0.99066033 -0.96243856 -1.1148195 -1.1860607 -1.2780785 -1.3766805 -1.3227071000000001 -1.3948869 -1.6385415 -1.6768466 -1.5463976000000001 -1.4945178999999997 -1.4416409 -1.3426498 -1.3243083 -1.2979785 -1.1485216 -1.0493542 -0.98199143 -0.69182456 -0.43398086 -0.57437581 -0.63900538 -0.11974766 0.35123945 0.18562812 0.10283419 0.48600248 0.57407331 0.40397434 0.5345357 0.58675421 0.52181179 0.72175519 0.6848584 0.35160214 0.43725082 0.71485022 0.69202144 0.60707653 0.60400921 0.65274229 0.72514513 0.68730458 0.71820754 0.87549638 0.84446562
-0.93749266 -1.0886334 -0.99066033 -0.96243856 -1.1148195 -1.1860607 -1.2780785 -1.3766805 -1.3227071000000001 -1.3948869 -1.6385415 -1.6768466 -1.5463976000000001 -1.4945178999999997 -1.4416409 -1.3426498 -1.3243083 -1.2979785 -1.1485216 -1.0493542 -0.98199143 -0.69182456 -0.43398086 -0.57437581 -0.63900538 -0.11974766 0.35123945 0.18562812 0.10283419 0.48600248 0.57407331 0.40397434 0.5345357 0.58675421 0.52181179 0.72175519 0.6848584 0.35160214 0.43725082 0.71485022 0.69202144 0.60707653 0.60400921 0.65274229 0.72514513 0.68730458 0.71820754 0.87549638 0.84446562 0.84913804
-1.0886334 -0.99066033 -0.96243856 -1.1148195 -1.1860607 -1.2780785 -1.3766805 -1.3227071000000001 -1.3948869 -1.6385415 -1.6768466 -1.5463976000000001 -1.4945178999999997 -1.4416409 -1.3426498 -1.3243083 -1.2979785 -1.1485216 -1.0493542 -0.98199143 -0.69182456 -0.43398086 -0.57437581 -0.63900538 -0.11974766 0.35123945 0.18562812 0.10283419 0.48600248 0.57407331 0.40397434 0.5345357 0.58675421 0.52181179 0.72175519 0.6848584 0.35160214 0.43725082 0.71485022 0.69202144 0.60707653 0.60400921 0.65274229 0.72514513 0.68730458 0.71820754 0.87549638 0.84446562 0.84913804 1.1551798999999998
-0.99066033 -0.96243856 -1.1148195 -1.1860607 -1.2780785 -1.3766805 -1.3227071000000001 -1.3948869 -1.6385415 -1.6768466 -1.5463976000000001 -1.4945178999999997 -1.4416409 -1.3426498 -1.3243083 -1.2979785 -1.1485216 -1.0493542 -0.98199143 -0.69182456 -0.43398086 -0.57437581 -0.63900538 -0.11974766 0.35123945 0.18562812 0.10283419 0.48600248 0.57407331 0.40397434 0.5345357 0.58675421 0.52181179 0.72175519 0.6848584 0.35160214 0.43725082 0.71485022 0.69202144 0.60707653 0.60400921 0.65274229 0.72514513 0.68730458 0.71820754 0.87549638 0.84446562 0.84913804 1.1551798999999998 1.2696425
-0.96243856 -1.1148195 -1.1860607 -1.2780785 -1.3766805 -1.3227071000000001 -1.3948869 -1.6385415 -1.6768466 -1.5463976000000001 -1.4945178999999997 -1.4416409 -1.3426498 -1.3243083 -1.2979785 -1.1485216 -1.0493542 -0.98199143 -0.69182456 -0.43398086 -0.57437581 -0.63900538 -0.11974766 0.35123945 0.18562812 0.10283419 0.48600248 0.57407331 0.40397434 0.5345357 0.58675421 0.52181179 0.72175519 0.6848584 0.35160214 0.43725082 0.71485022 0.69202144 0.60707653 0.60400921 0.65274229 0.72514513 0.68730458 0.71820754 0.87549638 0.84446562 0.84913804 1.1551798999999998 1.2696425 1.097906
-1.1148195 -1.1860607 -1.2780785 -1.3766805 -1.3227071000000001 -1.3948869 -1.6385415 -1.6768466 -1.5463976000000001 -1.4945178999999997 -1.4416409 -1.3426498 -1.3243083 -1.2979785 -1.1485216 -1.0493542 -0.98199143 -0.69182456 -0.43398086 -0.57437581 -0.63900538 -0.11974766 0.35123945 0.18562812 0.10283419 0.48600248 0.57407331 0.40397434 0.5345357 0.58675421 0.52181179 0.72175519 0.6848584 0.35160214 0.43725082 0.71485022 0.69202144 0.60707653 0.60400921 0.65274229 0.72514513 0.68730458 0.71820754 0.87549638 0.84446562 0.84913804 1.1551798999999998 1.2696425 1.097906 1.1794649
-1.1860607 -1.2780785 -1.3766805 -1.3227071000000001 -1.3948869 -1.6385415 -1.6768466 -1.5463976000000001 -1.4945178999999997 -1.4416409 -1.3426498 -1.3243083 -1.2979785 -1.1485216 -1.0493542 -0.98199143 -0.69182456 -0.43398086 -0.57437581 -0.63900538 -0.11974766 0.35123945 0.18562812 0.10283419 0.48600248 0.57407331 0.40397434 0.5345357 0.58675421 0.52181179 0.72175519 0.6848584 0.35160214 0.43725082 0.71485022 0.69202144 0.60707653 0.60400921 0.65274229 0.72514513 0.68730458 0.71820754 0.87549638 0.84446562 0.84913804 1.1551798999999998 1.2696425 1.097906 1.1794649 1.3981351
-1.2780785 -1.3766805 -1.3227071000000001 -1.3948869 -1.6385415 -1.6768466 -1.5463976000000001 -1.4945178999999997 -1.4416409 -1.3426498 -1.3243083 -1.2979785 -1.1485216 -1.0493542 -0.98199143 -0.69182456 -0.43398086 -0.57437581 -0.63900538 -0.11974766 0.35123945 0.18562812 0.10283419 0.48600248 0.57407331 0.40397434 0.5345357 0.58675421 0.52181179 0.72175519 0.6848584 0.35160214 0.43725082 0.71485022 0.69202144 0.60707653 0.60400921 0.65274229 0.72514513 0.68730458 0.71820754 0.87549638 0.84446562 0.84913804 1.1551798999999998 1.2696425 1.097906 1.1794649 1.3981351 1.37286
-1.3766805 -1.3227071000000001 -1.3948869 -1.6385415 -1.6768466 -1.5463976000000001 -1.4945178999999997 -1.4416409 -1.3426498 -1.3243083 -1.2979785 -1.1485216 -1.0493542 -0.98199143 -0.69182456 -0.43398086 -0.57437581 -0.63900538 -0.11974766 0.35123945 0.18562812 0.10283419 0.48600248 0.57407331 0.40397434 0.5345357 0.58675421 0.52181179 0.72175519 0.6848584 0.35160214 0.43725082 0.71485022 0.69202144 0.60707653 0.60400921 0.65274229 0.72514513 0.68730458 0.71820754 0.87549638 0.84446562 0.84913804 1.1551798999999998 1.2696425 1.097906 1.1794649 1.3981351 1.37286 1.4783319
-1.3227071000000001 -1.3948869 -1.6385415 -1.6768466 -1.5463976000000001 -1.4945178999999997 -1.4416409 -1.3426498 -1.3243083 -1.2979785 -1.1485216 -1.0493542 -0.98199143 -0.69182456 -0.43398086 -0.57437581 -0.63900538 -0.11974766 0.35123945 0.18562812 0.10283419 0.48600248 0.57407331 0.40397434 0.5345357 0.58675421 0.52181179 0.72175519 0.6848584 0.35160214 0.43725082 0.71485022 0.69202144 0.60707653 0.60400921 0.65274229 0.72514513 0.68730458 0.71820754 0.87549638 0.84446562 0.84913804 1.1551798999999998 1.2696425 1.097906 1.1794649 1.3981351 1.37286 1.4783319 1.7967330000000001
-1.3948869 -1.6385415 -1.6768466 -1.5463976000000001 -1.4945178999999997 -1.4416409 -1.3426498 -1.3243083 -1.2979785 -1.1485216 -1.0493542 -0.98199143 -0.69182456 -0.43398086 -0.57437581 -0.63900538 -0.11974766 0.35123945 0.18562812 0.10283419 0.48600248 0.57407331 0.40397434 0.5345357 0.58675421 0.52181179 0.72175519 0.6848584 0.35160214 0.43725082 0.71485022 0.69202144 0.60707653 0.60400921 0.65274229 0.72514513 0.68730458 0.71820754 0.87549638 0.84446562 0.84913804 1.1551798999999998 1.2696425 1.097906 1.1794649 1.3981351 1.37286 1.4783319 1.7967330000000001 1.4383253
-1.6385415 -1.6768466 -1.5463976000000001 -1.4945178999999997 -1.4416409 -1.3426498 -1.3243083 -1.2979785 -1.1485216 -1.0493542 -0.98199143 -0.69182456 -0.43398086 -0.57437581 -0.63900538 -0.11974766 0.35123945 0.18562812 0.10283419 0.48600248 0.57407331 0.40397434 0.5345357 0.58675421 0.52181179 0.72175519 0.6848584 0.35160214 0.43725082 0.71485022 0.69202144 0.60707653 0.60400921 0.65274229 0.72514513 0.68730458 0.71820754 0.87549638 0.84446562 0.84913804 1.1551798999999998 1.2696425 1.097906 1.1794649 1.3981351 1.37286 1.4783319 1.7967330000000001 1.4383253 0.69251641
-1.6768466 -1.5463976000000001 -1.4945178999999997 -1.4416409 -1.3426498 -1.3243083 -1.2979785 -1.1485216 -1.0493542 -0.98199143 -0.69182456 -0.43398086 -0.57437581 -0.63900538 -0.11974766 0.35123945 0.18562812 0.10283419 0.48600248 0.57407331 0.40397434 0.5345357 0.58675421 0.52181179 0.72175519 0.6848584 0.35160214 0.43725082 0.71485022 0.69202144 0.60707653 0.60400921 0.65274229 0.72514513 0.68730458 0.71820754 0.87549638 0.84446562 0.84913804 1.1551798999999998 1.2696425 1.097906 1.1794649 1.3981351 1.37286 1.4783319 1.7967330000000001 1.4383253 0.69251641 0.93092348
-1.5463976000000001 -1.4945178999999997 -1.4416409 -1.3426498 -1.3243083 -1.2979785 -1.1485216 -1.0493542 -0.98199143 -0.69182456 -0.43398086 -0.57437581 -0.63900538 -0.11974766 0.35123945 0.18562812 0.10283419 0.48600248 0.57407331 0.40397434 0.5345357 0.58675421 0.52181179 0.72175519 0.6848584 0.35160214 0.43725082 0.71485022 0.69202144 0.60707653 0.60400921 0.65274229 0.72514513 0.68730458 0.71820754 0.87549638 0.84446562 0.84913804 1.1551798999999998 1.2696425 1.097906 1.1794649 1.3981351 1.37286 1.4783319 1.7967330000000001 1.4383253 0.69251641 0.93092348 1.497244
-1.4945178999999997 -1.4416409 -1.3426498 -1.3243083 -1.2979785 -1.1485216 -1.0493542 -0.98199143 -0.69182456 -0.43398086 -0.57437581 -0.63900538 -0.11974766 0.35123945 0.18562812 0.10283419 0.48600248 0.57407331 0.40397434 0.5345357 0.58675421 0.52181179 0.72175519 0.6848584 0.35160214 0.43725082 0.71485022 0.69202144 0.60707653 0.60400921 0.65274229 0.72514513 0.68730458 0.71820754 0.87549638 0.84446562 0.84913804 1.1551798999999998 1.2696425 1.097906 1.1794649 1.3981351 1.37286 1.4783319 1.7967330000000001 1.4383253 0.69251641 0.93092348 1.497244 1.1966548000000001
-1.4416409 -1.3426498 -1.3243083 -1.2979785 -1.1485216 -1.0493542 -0.98199143 -0.69182456 -0.43398086 -0.57437581 -0.63900538 -0.11974766 0.35123945 0.18562812 0.10283419 0.48600248 0.57407331 0.40397434 0.5345357 0.58675421 0.52181179 0.72175519 0.6848584 0.35160214 0.43725082 0.71485022 0.69202144 0.60707653 0.60400921 0.65274229 0.72514513 0.68730458 0.71820754 0.87549638 0.84446562 0.84913804 1.1551798999999998 1.2696425 1.097906 1.1794649 1.3981351 1.37286 1.4783319 1.7967330000000001 1.4383253 0.69251641 0.93092348 1.497244 1.1966548000000001 0.85710223
-1.3426498 -1.3243083 -1.2979785 -1.1485216 -1.0493542 -0.98199143 -0.69182456 -0.43398086 -0.57437581 -0.63900538 -0.11974766 0.35123945 0.18562812 0.10283419 0.48600248 0.57407331 0.40397434 0.5345357 0.58675421 0.52181179 0.72175519 0.6848584 0.35160214 0.43725082 0.71485022 0.69202144 0.60707653 0.60400921 0.65274229 0.72514513 0.68730458 0.71820754 0.87549638 0.84446562 0.84913804 1.1551798999999998 1.2696425 1.097906 1.1794649 1.3981351 1.37286 1.4783319 1.7967330000000001 1.4383253 0.69251641 0.93092348 1.497244 1.1966548000000001 0.85710223 0.70511449
-1.3243083 -1.2979785 -1.1485216 -1.0493542 -0.98199143 -0.69182456 -0.43398086 -0.57437581 -0.63900538 -0.11974766 0.35123945 0.18562812 0.10283419 0.48600248 0.57407331 0.40397434 0.5345357 0.58675421 0.52181179 0.72175519 0.6848584 0.35160214 0.43725082 0.71485022 0.69202144 0.60707653 0.60400921 0.65274229 0.72514513 0.68730458 0.71820754 0.87549638 0.84446562 0.84913804 1.1551798999999998 1.2696425 1.097906 1.1794649 1.3981351 1.37286 1.4783319 1.7967330000000001 1.4383253 0.69251641 0.93092348 1.497244 1.1966548000000001 0.85710223 0.70511449 0.1377182
-1.2979785 -1.1485216 -1.0493542 -0.98199143 -0.69182456 -0.43398086 -0.57437581 -0.63900538 -0.11974766 0.35123945 0.18562812 0.10283419 0.48600248 0.57407331 0.40397434 0.5345357 0.58675421 0.52181179 0.72175519 0.6848584 0.35160214 0.43725082 0.71485022 0.69202144 0.60707653 0.60400921 0.65274229 0.72514513 0.68730458 0.71820754 0.87549638 0.84446562 0.84913804 1.1551798999999998 1.2696425 1.097906 1.1794649 1.3981351 1.37286 1.4783319 1.7967330000000001 1.4383253 0.69251641 0.93092348 1.497244 1.1966548000000001 0.85710223 0.70511449 0.1377182 -0.33259176
-1.1485216 -1.0493542 -0.98199143 -0.69182456 -0.43398086 -0.57437581 -0.63900538 -0.11974766 0.35123945 0.18562812 0.10283419 0.48600248 0.57407331 0.40397434 0.5345357 0.58675421 0.52181179 0.72175519 0.6848584 0.35160214 0.43725082 0.71485022 0.69202144 0.60707653 0.60400921 0.65274229 0.72514513 0.68730458 0.71820754 0.87549638 0.84446562 0.84913804 1.1551798999999998 1.2696425 1.097906 1.1794649 1.3981351 1.37286 1.4783319 1.7967330000000001 1.4383253 0.69251641 0.93092348 1.497244 1.1966548000000001 0.85710223 0.70511449 0.1377182 -0.33259176 -0.97079591
-1.0493542 -0.98199143 -0.69182456 -0.43398086 -0.57437581 -0.63900538 -0.11974766 0.35123945 0.18562812 0.10283419 0.48600248 0.57407331 0.40397434 0.5345357 0.58675421 0.52181179 0.72175519 0.6848584 0.35160214 0.43725082 0.71485022 0.69202144 0.60707653 0.60400921 0.65274229 0.72514513 0.68730458 0.71820754 0.87549638 0.84446562 0.84913804 1.1551798999999998 1.2696425 1.097906 1.1794649 1.3981351 1.37286 1.4783319 1.7967330000000001 1.4383253 0.69251641 0.93092348 1.497244 1.1966548000000001 0.85710223 0.70511449 0.1377182 -0.33259176 -0.97079591 -1.8623140999999999
-0.98199143 -0.69182456 -0.43398086 -0.57437581 -0.63900538 -0.11974766 0.35123945 0.18562812 0.10283419 0.48600248 0.57407331 0.40397434 0.5345357 0.58675421 0.52181179 0.72175519 0.6848584 0.35160214 0.43725082 0.71485022 0.69202144 0.60707653 0.60400921 0.65274229 0.72514513 0.68730458 0.71820754 0.87549638 0.84446562 0.84913804 1.1551798999999998 1.2696425 1.097906 1.1794649 1.3981351 1.37286 1.4783319 1.7967330000000001 1.4383253 0.69251641 0.93092348 1.497244 1.1966548000000001 0.85710223 0.70511449 0.1377182 -0.33259176 -0.97079591 -1.8623140999999999 -1.2386221000000002
