-0.1743352 1.3528679 2.6915514 1.6637386000000003 1.6834037 0.5311746 -1.3537081 -0.18406623 0.45316622 -0.19759894 0.09404008900000001 0.44589949 -0.31478967 -1.1647464 -0.99762711 -1.175502 -1.1555864 -1.2357325000000001 -1.4046113000000002 -1.385224 -1.4047868000000001 -1.3337243 -1.4274843000000002 -1.6475716 -1.7993599999999998 -1.8410863000000002 -1.8254599999999999 -1.7910915 -1.8242384999999999 -2.0028394 -2.0097871 -1.7300546 -1.7375591000000001 -1.6639753000000002 -1.4605276000000003 -1.1407161 -0.98502676 -0.61658787 -0.11334789 -0.11708515 0.23536959999999998 0.42662174 0.48868196 0.6563781999999999 1.0051381 0.91308968 0.77285866 0.96660043 0.87115019 0.75099477
1.3528679 2.6915514 1.6637386000000003 1.6834037 0.5311746 -1.3537081 -0.18406623 0.45316622 -0.19759894 0.09404008900000001 0.44589949 -0.31478967 -1.1647464 -0.99762711 -1.175502 -1.1555864 -1.2357325000000001 -1.4046113000000002 -1.385224 -1.4047868000000001 -1.3337243 -1.4274843000000002 -1.6475716 -1.7993599999999998 -1.8410863000000002 -1.8254599999999999 -1.7910915 -1.8242384999999999 -2.0028394 -2.0097871 -1.7300546 -1.7375591000000001 -1.6639753000000002 -1.4605276000000003 -1.1407161 -0.98502676 -0.61658787 -0.11334789 -0.11708515 0.23536959999999998 0.42662174 0.48868196 0.6563781999999999 1.0051381 0.91308968 0.77285866 0.96660043 0.87115019 0.75099477 0.69887641
2.6915514 1.6637386000000003 1.6834037 0.5311746 -1.3537081 -0.18406623 0.45316622 -0.19759894 0.09404008900000001 0.44589949 -0.31478967 -1.1647464 -0.99762711 -1.175502 -1.1555864 -1.2357325000000001 -1.4046113000000002 -1.385224 -1.4047868000000001 -1.3337243 -1.4274843000000002 -1.6475716 -1.7993599999999998 -1.8410863000000002 -1.8254599999999999 -1.7910915 -1.8242384999999999 -2.0028394 -2.0097871 -1.7300546 -1.7375591000000001 -1.6639753000000002 -1.4605276000000003 -1.1407161 -0.98502676 -0.61658787 -0.11334789 -0.11708515 0.23536959999999998 0.42662174 0.48868196 0.6563781999999999 1.0051381 0.91308968 0.77285866 0.96660043 0.87115019 0.75099477 0.69887641 0.64589389
1.6637386000000003 1.6834037 0.5311746 -1.3537081 -0.18406623 0.45316622 -0.19759894 0.09404008900000001 0.44589949 -0.31478967 -1.1647464 -0.99762711 -1.175502 -1.1555864 -1.2357325000000001 -1.4046113000000002 -1.385224 -1.4047868000000001 -1.3337243 -1.4274843000000002 -1.6475716 -1.7993599999999998 -1.8410863000000002 -1.8254599999999999 -1.7910915 -1.8242384999999999 -2.0028394 -2.0097871 -1.7300546 -1.7375591000000001 -1.6639753000000002 -1.4605276000000003 -1.1407161 -0.98502676 -0.61658787 -0.11334789 -0.11708515 0.23536959999999998 0.42662174 0.48868196 0.6563781999999999 1.0051381 0.91308968 0.77285866 0.96660043 0.87115019 0.75099477 0.69887641 0.64589389 0.65245631
1.6834037 0.5311746 -1.3537081 -0.18406623 0.45316622 -0.19759894 0.09404008900000001 0.44589949 -0.31478967 -1.1647464 -0.99762711 -1.175502 -1.1555864 -1.2357325000000001 -1.4046113000000002 -1.385224 -1.4047868000000001 -1.3337243 -1.4274843000000002 -1.6475716 -1.7993599999999998 -1.8410863000000002 -1.8254599999999999 -1.7910915 -1.8242384999999999 -2.0028394 -2.0097871 -1.7300546 -1.7375591000000001 -1.6639753000000002 -1.4605276000000003 -1.1407161 -0.98502676 -0.61658787 -0.11334789 -0.11708515 0.23536959999999998 0.42662174 0.48868196 0.6563781999999999 1.0051381 0.91308968 0.77285866 0.96660043 0.87115019 0.75099477 0.69887641 0.64589389 0.65245631 0.64119884
0.5311746 -1.3537081 -0.18406623 0.45316622 -0.19759894 0.09404008900000001 0.44589949 -0.31478967 -1.1647464 -0.99762711 -1.175502 -1.1555864 -1.2357325000000001 -1.4046113000000002 -1.385224 -1.4047868000000001 -1.3337243 -1.4274843000000002 -1.6475716 -1.7993599999999998 -1.8410863000000002 -1.8254599999999999 -1.7910915 -1.8242384999999999 -2.0028394 -2.0097871 -1.7300546 -1.7375591000000001 -1.6639753000000002 -1.4605276000000003 -1.1407161 -0.98502676 -0.61658787 -0.11334789 -0.11708515 0.23536959999999998 0.42662174 0.48868196 0.6563781999999999 1.0051381 0.91308968 0.77285866 0.96660043 0.87115019 0.75099477 0.69887641 0.64589389 0.65245631 0.64119884 0.67783156
-1.3537081 -0.18406623 0.45316622 -0.19759894 0.09404008900000001 0.44589949 -0.31478967 -1.1647464 -0.99762711 -1.175502 -1.1555864 -1.2357325000000001 -1.4046113000000002 -1.385224 -1.4047868000000001 -1.3337243 -1.4274843000000002 -1.6475716 -1.7993599999999998 -1.8410863000000002 -1.8254599999999999 -1.7910915 -1.8242384999999999 -2.0028394 -2.0097871 -1.7300546 -1.7375591000000001 -1.6639753000000002 -1.4605276000000003 -1.1407161 -0.98502676 -0.61658787 -0.11334789 -0.11708515 0.23536959999999998 0.42662174 0.48868196 0.6563781999999999 1.0051381 0.91308968 0.77285866 0.96660043 0.87115019 0.75099477 0.69887641 0.64589389 0.65245631 0.64119884 0.67783156 0.62033721
-0.18406623 0.45316622 -0.19759894 0.09404008900000001 0.44589949 -0.31478967 -1.1647464 -0.99762711 -1.175502 -1.1555864 -1.2357325000000001 -1.4046113000000002 -1.385224 -1.4047868000000001 -1.3337243 -1.4274843000000002 -1.6475716 -1.7993599999999998 -1.8410863000000002 -1.8254599999999999 -1.7910915 -1.8242384999999999 -2.0028394 -2.0097871 -1.7300546 -1.7375591000000001 -1.6639753000000002 -1.4605276000000003 -1.1407161 -0.98502676 -0.61658787 -0.11334789 -0.11708515 0.23536959999999998 0.42662174 0.48868196 0.6563781999999999 1.0051381 0.91308968 0.77285866 0.96660043 0.87115019 0.75099477 0.69887641 0.64589389 0.65245631 0.64119884 0.67783156 0.62033721 0.68975494
0.45316622 -0.19759894 0.09404008900000001 0.44589949 -0.31478967 -1.1647464 -0.99762711 -1.175502 -1.1555864 -1.2357325000000001 -1.4046113000000002 -1.385224 -1.4047868000000001 -1.3337243 -1.4274843000000002 -1.6475716 -1.7993599999999998 -1.8410863000000002 -1.8254599999999999 -1.7910915 -1.8242384999999999 -2.0028394 -2.0097871 -1.7300546 -1.7375591000000001 -1.6639753000000002 -1.4605276000000003 -1.1407161 -0.98502676 -0.61658787 -0.11334789 -0.11708515 0.23536959999999998 0.42662174 0.48868196 0.6563781999999999 1.0051381 0.91308968 0.77285866 0.96660043 0.87115019 0.75099477 0.69887641 0.64589389 0.65245631 0.64119884 0.67783156 0.62033721 0.68975494 0.67414873
-0.19759894 0.09404008900000001 0.44589949 -0.31478967 -1.1647464 -0.99762711 -1.175502 -1.1555864 -1.2357325000000001 -1.4046113000000002 -1.385224 -1.4047868000000001 -1.3337243 -1.4274843000000002 -1.6475716 -1.7993599999999998 -1.8410863000000002 -1.8254599999999999 -1.7910915 -1.8242384999999999 -2.0028394 -2.0097871 -1.7300546 -1.7375591000000001 -1.6639753000000002 -1.4605276000000003 -1.1407161 -0.98502676 -0.61658787 -0.11334789 -0.11708515 0.23536959999999998 0.42662174 0.48868196 0.6563781999999999 1.0051381 0.91308968 0.77285866 0.96660043 0.87115019 0.75099477 0.69887641 0.64589389 0.65245631 0.64119884 0.67783156 0.62033721 0.68975494 0.67414873 0.65611776
0.09404008900000001 0.44589949 -0.31478967 -1.1647464 -0.99762711 -1.175502 -1.1555864 -1.2357325000000001 -1.4046113000000002 -1.385224 -1.4047868000000001 -1.3337243 -1.4274843000000002 -1.6475716 -1.7993599999999998 -1.8410863000000002 -1.8254599999999999 -1.7910915 -1.8242384999999999 -2.0028394 -2.0097871 -1.7300546 -1.7375591000000001 -1.6639753000000002 -1.4605276000000003 -1.1407161 -0.98502676 -0.61658787 -0.11334789 -0.11708515 0.23536959999999998 0.42662174 0.48868196 0.6563781999999999 1.0051381 0.91308968 0.77285866 0.96660043 0.87115019 0.75099477 0.69887641 0.64589389 0.65245631 0.64119884 0.67783156 0.62033721 0.68975494 0.67414873 0.65611776 0.68502344
0.44589949 -0.31478967 -1.1647464 -0.99762711 -1.175502 -1.1555864 -1.2357325000000001 -1.4046113000000002 -1.385224 -1.4047868000000001 -1.3337243 -1.4274843000000002 -1.6475716 -1.7993599999999998 -1.8410863000000002 -1.8254599999999999 -1.7910915 -1.8242384999999999 -2.0028394 -2.0097871 -1.7300546 -1.7375591000000001 -1.6639753000000002 -1.4605276000000003 -1.1407161 -0.98502676 -0.61658787 -0.11334789 -0.11708515 0.23536959999999998 0.42662174 0.48868196 0.6563781999999999 1.0051381 0.91308968 0.77285866 0.96660043 0.87115019 0.75099477 0.69887641 0.64589389 0.65245631 0.64119884 0.67783156 0.62033721 0.68975494 0.67414873 0.65611776 0.68502344 0.73064181
-0.31478967 -1.1647464 -0.99762711 -1.175502 -1.1555864 -1.2357325000000001 -1.4046113000000002 -1.385224 -1.4047868000000001 -1.3337243 -1.4274843000000002 -1.6475716 -1.7993599999999998 -1.8410863000000002 -1.8254599999999999 -1.7910915 -1.8242384999999999 -2.0028394 -2.0097871 -1.7300546 -1.7375591000000001 -1.6639753000000002 -1.4605276000000003 -1.1407161 -0.98502676 -0.61658787 -0.11334789 -0.11708515 0.23536959999999998 0.42662174 0.48868196 0.6563781999999999 1.0051381 0.91308968 0.77285866 0.96660043 0.87115019 0.75099477 0.69887641 0.64589389 0.65245631 0.64119884 0.67783156 0.62033721 0.68975494 0.67414873 0.65611776 0.68502344 0.73064181 0.66933561
-1.1647464 -0.99762711 -1.175502 -1.1555864 -1.2357325000000001 -1.4046113000000002 -1.385224 -1.4047868000000001 -1.3337243 -1.4274843000000002 -1.6475716 -1.7993599999999998 -1.8410863000000002 -1.8254599999999999 -1.7910915 -1.8242384999999999 -2.0028394 -2.0097871 -1.7300546 -1.7375591000000001 -1.6639753000000002 -1.4605276000000003 -1.1407161 -0.98502676 -0.61658787 -0.11334789 -0.11708515 0.23536959999999998 0.42662174 0.48868196 0.6563781999999999 1.0051381 0.91308968 0.77285866 0.96660043 0.87115019 0.75099477 0.69887641 0.64589389 0.65245631 0.64119884 0.67783156 0.62033721 0.68975494 0.67414873 0.65611776 0.68502344 0.73064181 0.66933561 0.66355582
-0.99762711 -1.175502 -1.1555864 -1.2357325000000001 -1.4046113000000002 -1.385224 -1.4047868000000001 -1.3337243 -1.4274843000000002 -1.6475716 -1.7993599999999998 -1.8410863000000002 -1.8254599999999999 -1.7910915 -1.8242384999999999 -2.0028394 -2.0097871 -1.7300546 -1.7375591000000001 -1.6639753000000002 -1.4605276000000003 -1.1407161 -0.98502676 -0.61658787 -0.11334789 -0.11708515 0.23536959999999998 0.42662174 0.48868196 0.6563781999999999 1.0051381 0.91308968 0.77285866 0.96660043 0.87115019 0.75099477 0.69887641 0.64589389 0.65245631 0.64119884 0.67783156 0.62033721 0.68975494 0.67414873 0.65611776 0.68502344 0.73064181 0.66933561 0.66355582 0.67114639
-1.175502 -1.1555864 -1.2357325000000001 -1.4046113000000002 -1.385224 -1.4047868000000001 -1.3337243 -1.4274843000000002 -1.6475716 -1.7993599999999998 -1.8410863000000002 -1.8254599999999999 -1.7910915 -1.8242384999999999 -2.0028394 -2.0097871 -1.7300546 -1.7375591000000001 -1.6639753000000002 -1.4605276000000003 -1.1407161 -0.98502676 -0.61658787 -0.11334789 -0.11708515 0.23536959999999998 0.42662174 0.48868196 0.6563781999999999 1.0051381 0.91308968 0.77285866 0.96660043 0.87115019 0.75099477 0.69887641 0.64589389 0.65245631 0.64119884 0.67783156 0.62033721 0.68975494 0.67414873 0.65611776 0.68502344 0.73064181 0.66933561 0.66355582 0.67114639 0.6366849
-1.1555864 -1.2357325000000001 -1.4046113000000002 -1.385224 -1.4047868000000001 -1.3337243 -1.4274843000000002 -1.6475716 -1.7993599999999998 -1.8410863000000002 -1.8254599999999999 -1.7910915 -1.8242384999999999 -2.0028394 -2.0097871 -1.7300546 -1.7375591000000001 -1.6639753000000002 -1.4605276000000003 -1.1407161 -0.98502676 -0.61658787 -0.11334789 -0.11708515 0.23536959999999998 0.42662174 0.48868196 0.6563781999999999 1.0051381 0.91308968 0.77285866 0.96660043 0.87115019 0.75099477 0.69887641 0.64589389 0.65245631 0.64119884 0.67783156 0.62033721 0.68975494 0.67414873 0.65611776 0.68502344 0.73064181 0.66933561 0.66355582 0.67114639 0.6366849 0.71059812
-1.2357325000000001 -1.4046113000000002 -1.385224 -1.4047868000000001 -1.3337243 -1.4274843000000002 -1.6475716 -1.7993599999999998 -1.8410863000000002 -1.8254599999999999 -1.7910915 -1.8242384999999999 -2.0028394 -2.0097871 -1.7300546 -1.7375591000000001 -1.6639753000000002 -1.4605276000000003 -1.1407161 -0.98502676 -0.61658787 -0.11334789 -0.11708515 0.23536959999999998 0.42662174 0.48868196 0.6563781999999999 1.0051381 0.91308968 0.77285866 0.96660043 0.87115019 0.75099477 0.69887641 0.64589389 0.65245631 0.64119884 0.67783156 0.62033721 0.68975494 0.67414873 0.65611776 0.68502344 0.73064181 0.66933561 0.66355582 0.67114639 0.6366849 0.71059812 0.68415659
-1.4046113000000002 -1.385224 -1.4047868000000001 -1.3337243 -1.4274843000000002 -1.6475716 -1.7993599999999998 -1.8410863000000002 -1.8254599999999999 -1.7910915 -1.8242384999999999 -2.0028394 -2.0097871 -1.7300546 -1.7375591000000001 -1.6639753000000002 -1.4605276000000003 -1.1407161 -0.98502676 -0.61658787 -0.11334789 -0.11708515 0.23536959999999998 0.42662174 0.48868196 0.6563781999999999 1.0051381 0.91308968 0.77285866 0.96660043 0.87115019 0.75099477 0.69887641 0.64589389 0.65245631 0.64119884 0.67783156 0.62033721 0.68975494 0.67414873 0.65611776 0.68502344 0.73064181 0.66933561 0.66355582 0.67114639 0.6366849 0.71059812 0.68415659 0.54002169
-1.385224 -1.4047868000000001 -1.3337243 -1.4274843000000002 -1.6475716 -1.7993599999999998 -1.8410863000000002 -1.8254599999999999 -1.7910915 -1.8242384999999999 -2.0028394 -2.0097871 -1.7300546 -1.7375591000000001 -1.6639753000000002 -1.4605276000000003 -1.1407161 -0.98502676 -0.61658787 -0.11334789 -0.11708515 0.23536959999999998 0.42662174 0.48868196 0.6563781999999999 1.0051381 0.91308968 0.77285866 0.96660043 0.87115019 0.75099477 0.69887641 0.64589389 0.65245631 0.64119884 0.67783156 0.62033721 0.68975494 0.67414873 0.65611776 0.68502344 0.73064181 0.66933561 0.66355582 0.67114639 0.6366849 0.71059812 0.68415659 0.54002169 0.4511246
-1.4047868000000001 -1.3337243 -1.4274843000000002 -1.6475716 -1.7993599999999998 -1.8410863000000002 -1.8254599999999999 -1.7910915 -1.8242384999999999 -2.0028394 -2.0097871 -1.7300546 -1.7375591000000001 -1.6639753000000002 -1.4605276000000003 -1.1407161 -0.98502676 -0.61658787 -0.11334789 -0.11708515 0.23536959999999998 0.42662174 0.48868196 0.6563781999999999 1.0051381 0.91308968 0.77285866 0.96660043 0.87115019 0.75099477 0.69887641 0.64589389 0.65245631 0.64119884 0.67783156 0.62033721 0.68975494 0.67414873 0.65611776 0.68502344 0.73064181 0.66933561 0.66355582 0.67114639 0.6366849 0.71059812 0.68415659 0.54002169 0.4511246 0.58766039
-1.3337243 -1.4274843000000002 -1.6475716 -1.7993599999999998 -1.8410863000000002 -1.8254599999999999 -1.7910915 -1.8242384999999999 -2.0028394 -2.0097871 -1.7300546 -1.7375591000000001 -1.6639753000000002 -1.4605276000000003 -1.1407161 -0.98502676 -0.61658787 -0.11334789 -0.11708515 0.23536959999999998 0.42662174 0.48868196 0.6563781999999999 1.0051381 0.91308968 0.77285866 0.96660043 0.87115019 0.75099477 0.69887641 0.64589389 0.65245631 0.64119884 0.67783156 0.62033721 0.68975494 0.67414873 0.65611776 0.68502344 0.73064181 0.66933561 0.66355582 0.67114639 0.6366849 0.71059812 0.68415659 0.54002169 0.4511246 0.58766039 0.50550476
-1.4274843000000002 -1.6475716 -1.7993599999999998 -1.8410863000000002 -1.8254599999999999 -1.7910915 -1.8242384999999999 -2.0028394 -2.0097871 -1.7300546 -1.7375591000000001 -1.6639753000000002 -1.4605276000000003 -1.1407161 -0.98502676 -0.61658787 -0.11334789 -0.11708515 0.23536959999999998 0.42662174 0.48868196 0.6563781999999999 1.0051381 0.91308968 0.77285866 0.96660043 0.87115019 0.75099477 0.69887641 0.64589389 0.65245631 0.64119884 0.67783156 0.62033721 0.68975494 0.67414873 0.65611776 0.68502344 0.73064181 0.66933561 0.66355582 0.67114639 0.6366849 0.71059812 0.68415659 0.54002169 0.4511246 0.58766039 0.50550476 0.45309965
-1.6475716 -1.7993599999999998 -1.8410863000000002 -1.8254599999999999 -1.7910915 -1.8242384999999999 -2.0028394 -2.0097871 -1.7300546 -1.7375591000000001 -1.6639753000000002 -1.4605276000000003 -1.1407161 -0.98502676 -0.61658787 -0.11334789 -0.11708515 0.23536959999999998 0.42662174 0.48868196 0.6563781999999999 1.0051381 0.91308968 0.77285866 0.96660043 0.87115019 0.75099477 0.69887641 0.64589389 0.65245631 0.64119884 0.67783156 0.62033721 0.68975494 0.67414873 0.65611776 0.68502344 0.73064181 0.66933561 0.66355582 0.67114639 0.6366849 0.71059812 0.68415659 0.54002169 0.4511246 0.58766039 0.50550476 0.45309965 0.77291692
-1.7993599999999998 -1.8410863000000002 -1.8254599999999999 -1.7910915 -1.8242384999999999 -2.0028394 -2.0097871 -1.7300546 -1.7375591000000001 -1.6639753000000002 -1.4605276000000003 -1.1407161 -0.98502676 -0.61658787 -0.11334789 -0.11708515 0.23536959999999998 0.42662174 0.48868196 0.6563781999999999 1.0051381 0.91308968 0.77285866 0.96660043 0.87115019 0.75099477 0.69887641 0.64589389 0.65245631 0.64119884 0.67783156 0.62033721 0.68975494 0.67414873 0.65611776 0.68502344 0.73064181 0.66933561 0.66355582 0.67114639 0.6366849 0.71059812 0.68415659 0.54002169 0.4511246 0.58766039 0.50550476 0.45309965 0.77291692 0.89361217
-1.8410863000000002 -1.8254599999999999 -1.7910915 -1.8242384999999999 -2.0028394 -2.0097871 -1.7300546 -1.7375591000000001 -1.6639753000000002 -1.4605276000000003 -1.1407161 -0.98502676 -0.61658787 -0.11334789 -0.11708515 0.23536959999999998 0.42662174 0.48868196 0.6563781999999999 1.0051381 0.91308968 0.77285866 0.96660043 0.87115019 0.75099477 0.69887641 0.64589389 0.65245631 0.64119884 0.67783156 0.62033721 0.68975494 0.67414873 0.65611776 0.68502344 0.73064181 0.66933561 0.66355582 0.67114639 0.6366849 0.71059812 0.68415659 0.54002169 0.4511246 0.58766039 0.50550476 0.45309965 0.77291692 0.89361217 0.90260426
-1.8254599999999999 -1.7910915 -1.8242384999999999 -2.0028394 -2.0097871 -1.7300546 -1.7375591000000001 -1.6639753000000002 -1.4605276000000003 -1.1407161 -0.98502676 -0.61658787 -0.11334789 -0.11708515 0.23536959999999998 0.42662174 0.48868196 0.6563781999999999 1.0051381 0.91308968 0.77285866 0.96660043 0.87115019 0.75099477 0.69887641 0.64589389 0.65245631 0.64119884 0.67783156 0.62033721 0.68975494 0.67414873 0.65611776 0.68502344 0.73064181 0.66933561 0.66355582 0.67114639 0.6366849 0.71059812 0.68415659 0.54002169 0.4511246 0.58766039 0.50550476 0.45309965 0.77291692 0.89361217 0.90260426 0.97000717
-1.7910915 -1.8242384999999999 -2.0028394 -2.0097871 -1.7300546 -1.7375591000000001 -1.6639753000000002 -1.4605276000000003 -1.1407161 -0.98502676 -0.61658787 -0.11334789 -0.11708515 0.23536959999999998 0.42662174 0.48868196 0.6563781999999999 1.0051381 0.91308968 0.77285866 0.96660043 0.87115019 0.75099477 0.69887641 0.64589389 0.65245631 0.64119884 0.67783156 0.62033721 0.68975494 0.67414873 0.65611776 0.68502344 0.73064181 0.66933561 0.66355582 0.67114639 0.6366849 0.71059812 0.68415659 0.54002169 0.4511246 0.58766039 0.50550476 0.45309965 0.77291692 0.89361217 0.90260426 0.97000717 0.95258768
-1.8242384999999999 -2.0028394 -2.0097871 -1.7300546 -1.7375591000000001 -1.6639753000000002 -1.4605276000000003 -1.1407161 -0.98502676 -0.61658787 -0.11334789 -0.11708515 0.23536959999999998 0.42662174 0.48868196 0.6563781999999999 1.0051381 0.91308968 0.77285866 0.96660043 0.87115019 0.75099477 0.69887641 0.64589389 0.65245631 0.64119884 0.67783156 0.62033721 0.68975494 0.67414873 0.65611776 0.68502344 0.73064181 0.66933561 0.66355582 0.67114639 0.6366849 0.71059812 0.68415659 0.54002169 0.4511246 0.58766039 0.50550476 0.45309965 0.77291692 0.89361217 0.90260426 0.97000717 0.95258768 0.6038387
-2.0028394 -2.0097871 -1.7300546 -1.7375591000000001 -1.6639753000000002 -1.4605276000000003 -1.1407161 -0.98502676 -0.61658787 -0.11334789 -0.11708515 0.23536959999999998 0.42662174 0.48868196 0.6563781999999999 1.0051381 0.91308968 0.77285866 0.96660043 0.87115019 0.75099477 0.69887641 0.64589389 0.65245631 0.64119884 0.67783156 0.62033721 0.68975494 0.67414873 0.65611776 0.68502344 0.73064181 0.66933561 0.66355582 0.67114639 0.6366849 0.71059812 0.68415659 0.54002169 0.4511246 0.58766039 0.50550476 0.45309965 0.77291692 0.89361217 0.90260426 0.97000717 0.95258768 0.6038387 0.59555377
-2.0097871 -1.7300546 -1.7375591000000001 -1.6639753000000002 -1.4605276000000003 -1.1407161 -0.98502676 -0.61658787 -0.11334789 -0.11708515 0.23536959999999998 0.42662174 0.48868196 0.6563781999999999 1.0051381 0.91308968 0.77285866 0.96660043 0.87115019 0.75099477 0.69887641 0.64589389 0.65245631 0.64119884 0.67783156 0.62033721 0.68975494 0.67414873 0.65611776 0.68502344 0.73064181 0.66933561 0.66355582 0.67114639 0.6366849 0.71059812 0.68415659 0.54002169 0.4511246 0.58766039 0.50550476 0.45309965 0.77291692 0.89361217 0.90260426 0.97000717 0.95258768 0.6038387 0.59555377 0.61378236
-1.7300546 -1.7375591000000001 -1.6639753000000002 -1.4605276000000003 -1.1407161 -0.98502676 -0.61658787 -0.11334789 -0.11708515 0.23536959999999998 0.42662174 0.48868196 0.6563781999999999 1.0051381 0.91308968 0.77285866 0.96660043 0.87115019 0.75099477 0.69887641 0.64589389 0.65245631 0.64119884 0.67783156 0.62033721 0.68975494 0.67414873 0.65611776 0.68502344 0.73064181 0.66933561 0.66355582 0.67114639 0.6366849 0.71059812 0.68415659 0.54002169 0.4511246 0.58766039 0.50550476 0.45309965 0.77291692 0.89361217 0.90260426 0.97000717 0.95258768 0.6038387 0.59555377 0.61378236 0.23900466
-1.7375591000000001 -1.6639753000000002 -1.4605276000000003 -1.1407161 -0.98502676 -0.61658787 -0.11334789 -0.11708515 0.23536959999999998 0.42662174 0.48868196 0.6563781999999999 1.0051381 0.91308968 0.77285866 0.96660043 0.87115019 0.75099477 0.69887641 0.64589389 0.65245631 0.64119884 0.67783156 0.62033721 0.68975494 0.67414873 0.65611776 0.68502344 0.73064181 0.66933561 0.66355582 0.67114639 0.6366849 0.71059812 0.68415659 0.54002169 0.4511246 0.58766039 0.50550476 0.45309965 0.77291692 0.89361217 0.90260426 0.97000717 0.95258768 0.6038387 0.59555377 0.61378236 0.23900466 0.30504852
-1.6639753000000002 -1.4605276000000003 -1.1407161 -0.98502676 -0.61658787 -0.11334789 -0.11708515 0.23536959999999998 0.42662174 0.48868196 0.6563781999999999 1.0051381 0.91308968 0.77285866 0.96660043 0.87115019 0.75099477 0.69887641 0.64589389 0.65245631 0.64119884 0.67783156 0.62033721 0.68975494 0.67414873 0.65611776 0.68502344 0.73064181 0.66933561 0.66355582 0.67114639 0.6366849 0.71059812 0.68415659 0.54002169 0.4511246 0.58766039 0.50550476 0.45309965 0.77291692 0.89361217 0.90260426 0.97000717 0.95258768 0.6038387 0.59555377 0.61378236 0.23900466 0.30504852 0.27929827
-1.4605276000000003 -1.1407161 -0.98502676 -0.61658787 -0.11334789 -0.11708515 0.23536959999999998 0.42662174 0.48868196 0.6563781999999999 1.0051381 0.91308968 0.77285866 0.96660043 0.87115019 0.75099477 0.69887641 0.64589389 0.65245631 0.64119884 0.67783156 0.62033721 0.68975494 0.67414873 0.65611776 0.68502344 0.73064181 0.66933561 0.66355582 0.67114639 0.6366849 0.71059812 0.68415659 0.54002169 0.4511246 0.58766039 0.50550476 0.45309965 0.77291692 0.89361217 0.90260426 0.97000717 0.95258768 0.6038387 0.59555377 0.61378236 0.23900466 0.30504852 0.27929827 0.22291827
-1.1407161 -0.98502676 -0.61658787 -0.11334789 -0.11708515 0.23536959999999998 0.42662174 0.48868196 0.6563781999999999 1.0051381 0.91308968 0.77285866 0.96660043 0.87115019 0.75099477 0.69887641 0.64589389 0.65245631 0.64119884 0.67783156 0.62033721 0.68975494 0.67414873 0.65611776 0.68502344 0.73064181 0.66933561 0.66355582 0.67114639 0.6366849 0.71059812 0.68415659 0.54002169 0.4511246 0.58766039 0.50550476 0.45309965 0.77291692 0.89361217 0.90260426 0.97000717 0.95258768 0.6038387 0.59555377 0.61378236 0.23900466 0.30504852 0.27929827 0.22291827 0.014128542
-0.98502676 -0.61658787 -0.11334789 -0.11708515 0.23536959999999998 0.42662174 0.48868196 0.6563781999999999 1.0051381 0.91308968 0.77285866 0.96660043 0.87115019 0.75099477 0.69887641 0.64589389 0.65245631 0.64119884 0.67783156 0.62033721 0.68975494 0.67414873 0.65611776 0.68502344 0.73064181 0.66933561 0.66355582 0.67114639 0.6366849 0.71059812 0.68415659 0.54002169 0.4511246 0.58766039 0.50550476 0.45309965 0.77291692 0.89361217 0.90260426 0.97000717 0.95258768 0.6038387 0.59555377 0.61378236 0.23900466 0.30504852 0.27929827 0.22291827 0.014128542 0.29554609
-0.61658787 -0.11334789 -0.11708515 0.23536959999999998 0.42662174 0.48868196 0.6563781999999999 1.0051381 0.91308968 0.77285866 0.96660043 0.87115019 0.75099477 0.69887641 0.64589389 0.65245631 0.64119884 0.67783156 0.62033721 0.68975494 0.67414873 0.65611776 0.68502344 0.73064181 0.66933561 0.66355582 0.67114639 0.6366849 0.71059812 0.68415659 0.54002169 0.4511246 0.58766039 0.50550476 0.45309965 0.77291692 0.89361217 0.90260426 0.97000717 0.95258768 0.6038387 0.59555377 0.61378236 0.23900466 0.30504852 0.27929827 0.22291827 0.014128542 0.29554609 0.3327364
-0.11334789 -0.11708515 0.23536959999999998 0.42662174 0.48868196 0.6563781999999999 1.0051381 0.91308968 0.77285866 0.96660043 0.87115019 0.75099477 0.69887641 0.64589389 0.65245631 0.64119884 0.67783156 0.62033721 0.68975494 0.67414873 0.65611776 0.68502344 0.73064181 0.66933561 0.66355582 0.67114639 0.6366849 0.71059812 0.68415659 0.54002169 0.4511246 0.58766039 0.50550476 0.45309965 0.77291692 0.89361217 0.90260426 0.97000717 0.95258768 0.6038387 0.59555377 0.61378236 0.23900466 0.30504852 0.27929827 0.22291827 0.014128542 0.29554609 0.3327364 0.015242973
-0.11708515 0.23536959999999998 0.42662174 0.48868196 0.6563781999999999 1.0051381 0.91308968 0.77285866 0.96660043 0.87115019 0.75099477 0.69887641 0.64589389 0.65245631 0.64119884 0.67783156 0.62033721 0.68975494 0.67414873 0.65611776 0.68502344 0.73064181 0.66933561 0.66355582 0.67114639 0.6366849 0.71059812 0.68415659 0.54002169 0.4511246 0.58766039 0.50550476 0.45309965 0.77291692 0.89361217 0.90260426 0.97000717 0.95258768 0.6038387 0.59555377 0.61378236 0.23900466 0.30504852 0.27929827 0.22291827 0.014128542 0.29554609 0.3327364 0.015242973 0.31150627
0.23536959999999998 0.42662174 0.48868196 0.6563781999999999 1.0051381 0.91308968 0.77285866 0.96660043 0.87115019 0.75099477 0.69887641 0.64589389 0.65245631 0.64119884 0.67783156 0.62033721 0.68975494 0.67414873 0.65611776 0.68502344 0.73064181 0.66933561 0.66355582 0.67114639 0.6366849 0.71059812 0.68415659 0.54002169 0.4511246 0.58766039 0.50550476 0.45309965 0.77291692 0.89361217 0.90260426 0.97000717 0.95258768 0.6038387 0.59555377 0.61378236 0.23900466 0.30504852 0.27929827 0.22291827 0.014128542 0.29554609 0.3327364 0.015242973 0.31150627 0.18321705
0.42662174 0.48868196 0.6563781999999999 1.0051381 0.91308968 0.77285866 0.96660043 0.87115019 0.75099477 0.69887641 0.64589389 0.65245631 0.64119884 0.67783156 0.62033721 0.68975494 0.67414873 0.65611776 0.68502344 0.73064181 0.66933561 0.66355582 0.67114639 0.6366849 0.71059812 0.68415659 0.54002169 0.4511246 0.58766039 0.50550476 0.45309965 0.77291692 0.89361217 0.90260426 0.97000717 0.95258768 0.6038387 0.59555377 0.61378236 0.23900466 0.30504852 0.27929827 0.22291827 0.014128542 0.29554609 0.3327364 0.015242973 0.31150627 0.18321705 0.09861088400000001
0.48868196 0.6563781999999999 1.0051381 0.91308968 0.77285866 0.96660043 0.87115019 0.75099477 0.69887641 0.64589389 0.65245631 0.64119884 0.67783156 0.62033721 0.68975494 0.67414873 0.65611776 0.68502344 0.73064181 0.66933561 0.66355582 0.67114639 0.6366849 0.71059812 0.68415659 0.54002169 0.4511246 0.58766039 0.50550476 0.45309965 0.77291692 0.89361217 0.90260426 0.97000717 0.95258768 0.6038387 0.59555377 0.61378236 0.23900466 0.30504852 0.27929827 0.22291827 0.014128542 0.29554609 0.3327364 0.015242973 0.31150627 0.18321705 0.09861088400000001 0.13708929
0.6563781999999999 1.0051381 0.91308968 0.77285866 0.96660043 0.87115019 0.75099477 0.69887641 0.64589389 0.65245631 0.64119884 0.67783156 0.62033721 0.68975494 0.67414873 0.65611776 0.68502344 0.73064181 0.66933561 0.66355582 0.67114639 0.6366849 0.71059812 0.68415659 0.54002169 0.4511246 0.58766039 0.50550476 0.45309965 0.77291692 0.89361217 0.90260426 0.97000717 0.95258768 0.6038387 0.59555377 0.61378236 0.23900466 0.30504852 0.27929827 0.22291827 0.014128542 0.29554609 0.3327364 0.015242973 0.31150627 0.18321705 0.09861088400000001 0.13708929 0.13226231
1.0051381 0.91308968 0.77285866 0.96660043 0.87115019 0.75099477 0.69887641 0.64589389 0.65245631 0.64119884 0.67783156 0.62033721 0.68975494 0.67414873 0.65611776 0.68502344 0.73064181 0.66933561 0.66355582 0.67114639 0.6366849 0.71059812 0.68415659 0.54002169 0.4511246 0.58766039 0.50550476 0.45309965 0.77291692 0.89361217 0.90260426 0.97000717 0.95258768 0.6038387 0.59555377 0.61378236 0.23900466 0.30504852 0.27929827 0.22291827 0.014128542 0.29554609 0.3327364 0.015242973 0.31150627 0.18321705 0.09861088400000001 0.13708929 0.13226231 0.25320529
0.91308968 0.77285866 0.96660043 0.87115019 0.75099477 0.69887641 0.64589389 0.65245631 0.64119884 0.67783156 0.62033721 0.68975494 0.67414873 0.65611776 0.68502344 0.73064181 0.66933561 0.66355582 0.67114639 0.6366849 0.71059812 0.68415659 0.54002169 0.4511246 0.58766039 0.50550476 0.45309965 0.77291692 0.89361217 0.90260426 0.97000717 0.95258768 0.6038387 0.59555377 0.61378236 0.23900466 0.30504852 0.27929827 0.22291827 0.014128542 0.29554609 0.3327364 0.015242973 0.31150627 0.18321705 0.09861088400000001 0.13708929 0.13226231 0.25320529 0.019005131
0.77285866 0.96660043 0.87115019 0.75099477 0.69887641 0.64589389 0.65245631 0.64119884 0.67783156 0.62033721 0.68975494 0.67414873 0.65611776 0.68502344 0.73064181 0.66933561 0.66355582 0.67114639 0.6366849 0.71059812 0.68415659 0.54002169 0.4511246 0.58766039 0.50550476 0.45309965 0.77291692 0.89361217 0.90260426 0.97000717 0.95258768 0.6038387 0.59555377 0.61378236 0.23900466 0.30504852 0.27929827 0.22291827 0.014128542 0.29554609 0.3327364 0.015242973 0.31150627 0.18321705 0.09861088400000001 0.13708929 0.13226231 0.25320529 0.019005131 0.12422035
