0.54278954 2.0640499 2.8059708999999997 1.5594706 0.15867064 -0.70491116 -0.023513034 0.57809638 0.41833539 0.53746948 0.11032367 -0.18762124 -0.46296555 -0.67848725 -0.66659982 -0.72720675 -0.77209834 -0.88130547 -0.8496939 -1.2677519 -1.219541 -1.1338395000000001 -1.4279445 -1.5642636 -1.8216128 -1.7485221000000002 -1.9290449 -2.1355442000000004 -2.2463926 -2.2156476 -2.1510943 -2.3312285 -1.9414192 -1.5425392 -1.392594 -0.94051585 -0.62262725 -0.14431619 0.32856278 0.5698652 0.99913614 0.96786185 0.83333595 1.2204373 1.0759235 0.95540079 1.0877 0.86271594 0.73644627 0.85793997
2.0640499 2.8059708999999997 1.5594706 0.15867064 -0.70491116 -0.023513034 0.57809638 0.41833539 0.53746948 0.11032367 -0.18762124 -0.46296555 -0.67848725 -0.66659982 -0.72720675 -0.77209834 -0.88130547 -0.8496939 -1.2677519 -1.219541 -1.1338395000000001 -1.4279445 -1.5642636 -1.8216128 -1.7485221000000002 -1.9290449 -2.1355442000000004 -2.2463926 -2.2156476 -2.1510943 -2.3312285 -1.9414192 -1.5425392 -1.392594 -0.94051585 -0.62262725 -0.14431619 0.32856278 0.5698652 0.99913614 0.96786185 0.83333595 1.2204373 1.0759235 0.95540079 1.0877 0.86271594 0.73644627 0.85793997 0.78104814
2.8059708999999997 1.5594706 0.15867064 -0.70491116 -0.023513034 0.57809638 0.41833539 0.53746948 0.11032367 -0.18762124 -0.46296555 -0.67848725 -0.66659982 -0.72720675 -0.77209834 -0.88130547 -0.8496939 -1.2677519 -1.219541 -1.1338395000000001 -1.4279445 -1.5642636 -1.8216128 -1.7485221000000002 -1.9290449 -2.1355442000000004 -2.2463926 -2.2156476 -2.1510943 -2.3312285 -1.9414192 -1.5425392 -1.392594 -0.94051585 -0.62262725 -0.14431619 0.32856278 0.5698652 0.99913614 0.96786185 0.83333595 1.2204373 1.0759235 0.95540079 1.0877 0.86271594 0.73644627 0.85793997 0.78104814 0.84238011
1.5594706 0.15867064 -0.70491116 -0.023513034 0.57809638 0.41833539 0.53746948 0.11032367 -0.18762124 -0.46296555 -0.67848725 -0.66659982 -0.72720675 -0.77209834 -0.88130547 -0.8496939 -1.2677519 -1.219541 -1.1338395000000001 -1.4279445 -1.5642636 -1.8216128 -1.7485221000000002 -1.9290449 -2.1355442000000004 -2.2463926 -2.2156476 -2.1510943 -2.3312285 -1.9414192 -1.5425392 -1.392594 -0.94051585 -0.62262725 -0.14431619 0.32856278 0.5698652 0.99913614 0.96786185 0.83333595 1.2204373 1.0759235 0.95540079 1.0877 0.86271594 0.73644627 0.85793997 0.78104814 0.84238011 0.81268712
0.15867064 -0.70491116 -0.023513034 0.57809638 0.41833539 0.53746948 0.11032367 -0.18762124 -0.46296555 -0.67848725 -0.66659982 -0.72720675 -0.77209834 -0.88130547 -0.8496939 -1.2677519 -1.219541 -1.1338395000000001 -1.4279445 -1.5642636 -1.8216128 -1.7485221000000002 -1.9290449 -2.1355442000000004 -2.2463926 -2.2156476 -2.1510943 -2.3312285 -1.9414192 -1.5425392 -1.392594 -0.94051585 -0.62262725 -0.14431619 0.32856278 0.5698652 0.99913614 0.96786185 0.83333595 1.2204373 1.0759235 0.95540079 1.0877 0.86271594 0.73644627 0.85793997 0.78104814 0.84238011 0.81268712 0.65457535
-0.70491116 -0.023513034 0.57809638 0.41833539 0.53746948 0.11032367 -0.18762124 -0.46296555 -0.67848725 -0.66659982 -0.72720675 -0.77209834 -0.88130547 -0.8496939 -1.2677519 -1.219541 -1.1338395000000001 -1.4279445 -1.5642636 -1.8216128 -1.7485221000000002 -1.9290449 -2.1355442000000004 -2.2463926 -2.2156476 -2.1510943 -2.3312285 -1.9414192 -1.5425392 -1.392594 -0.94051585 -0.62262725 -0.14431619 0.32856278 0.5698652 0.99913614 0.96786185 0.83333595 1.2204373 1.0759235 0.95540079 1.0877 0.86271594 0.73644627 0.85793997 0.78104814 0.84238011 0.81268712 0.65457535 1.0122299000000001
-0.023513034 0.57809638 0.41833539 0.53746948 0.11032367 -0.18762124 -0.46296555 -0.67848725 -0.66659982 -0.72720675 -0.77209834 -0.88130547 -0.8496939 -1.2677519 -1.219541 -1.1338395000000001 -1.4279445 -1.5642636 -1.8216128 -1.7485221000000002 -1.9290449 -2.1355442000000004 -2.2463926 -2.2156476 -2.1510943 -2.3312285 -1.9414192 -1.5425392 -1.392594 -0.94051585 -0.62262725 -0.14431619 0.32856278 0.5698652 0.99913614 0.96786185 0.83333595 1.2204373 1.0759235 0.95540079 1.0877 0.86271594 0.73644627 0.85793997 0.78104814 0.84238011 0.81268712 0.65457535 1.0122299000000001 0.85268779
0.57809638 0.41833539 0.53746948 0.11032367 -0.18762124 -0.46296555 -0.67848725 -0.66659982 -0.72720675 -0.77209834 -0.88130547 -0.8496939 -1.2677519 -1.219541 -1.1338395000000001 -1.4279445 -1.5642636 -1.8216128 -1.7485221000000002 -1.9290449 -2.1355442000000004 -2.2463926 -2.2156476 -2.1510943 -2.3312285 -1.9414192 -1.5425392 -1.392594 -0.94051585 -0.62262725 -0.14431619 0.32856278 0.5698652 0.99913614 0.96786185 0.83333595 1.2204373 1.0759235 0.95540079 1.0877 0.86271594 0.73644627 0.85793997 0.78104814 0.84238011 0.81268712 0.65457535 1.0122299000000001 0.85268779 0.61352661
0.41833539 0.53746948 0.11032367 -0.18762124 -0.46296555 -0.67848725 -0.66659982 -0.72720675 -0.77209834 -0.88130547 -0.8496939 -1.2677519 -1.219541 -1.1338395000000001 -1.4279445 -1.5642636 -1.8216128 -1.7485221000000002 -1.9290449 -2.1355442000000004 -2.2463926 -2.2156476 -2.1510943 -2.3312285 -1.9414192 -1.5425392 -1.392594 -0.94051585 -0.62262725 -0.14431619 0.32856278 0.5698652 0.99913614 0.96786185 0.83333595 1.2204373 1.0759235 0.95540079 1.0877 0.86271594 0.73644627 0.85793997 0.78104814 0.84238011 0.81268712 0.65457535 1.0122299000000001 0.85268779 0.61352661 0.83037465
0.53746948 0.11032367 -0.18762124 -0.46296555 -0.67848725 -0.66659982 -0.72720675 -0.77209834 -0.88130547 -0.8496939 -1.2677519 -1.219541 -1.1338395000000001 -1.4279445 -1.5642636 -1.8216128 -1.7485221000000002 -1.9290449 -2.1355442000000004 -2.2463926 -2.2156476 -2.1510943 -2.3312285 -1.9414192 -1.5425392 -1.392594 -0.94051585 -0.62262725 -0.14431619 0.32856278 0.5698652 0.99913614 0.96786185 0.83333595 1.2204373 1.0759235 0.95540079 1.0877 0.86271594 0.73644627 0.85793997 0.78104814 0.84238011 0.81268712 0.65457535 1.0122299000000001 0.85268779 0.61352661 0.83037465 0.74648495
0.11032367 -0.18762124 -0.46296555 -0.67848725 -0.66659982 -0.72720675 -0.77209834 -0.88130547 -0.8496939 -1.2677519 -1.219541 -1.1338395000000001 -1.4279445 -1.5642636 -1.8216128 -1.7485221000000002 -1.9290449 -2.1355442000000004 -2.2463926 -2.2156476 -2.1510943 -2.3312285 -1.9414192 -1.5425392 -1.392594 -0.94051585 -0.62262725 -0.14431619 0.32856278 0.5698652 0.99913614 0.96786185 0.83333595 1.2204373 1.0759235 0.95540079 1.0877 0.86271594 0.73644627 0.85793997 0.78104814 0.84238011 0.81268712 0.65457535 1.0122299000000001 0.85268779 0.61352661 0.83037465 0.74648495 0.55807478
-0.18762124 -0.46296555 -0.67848725 -0.66659982 -0.72720675 -0.77209834 -0.88130547 -0.8496939 -1.2677519 -1.219541 -1.1338395000000001 -1.4279445 -1.5642636 -1.8216128 -1.7485221000000002 -1.9290449 -2.1355442000000004 -2.2463926 -2.2156476 -2.1510943 -2.3312285 -1.9414192 -1.5425392 -1.392594 -0.94051585 -0.62262725 -0.14431619 0.32856278 0.5698652 0.99913614 0.96786185 0.83333595 1.2204373 1.0759235 0.95540079 1.0877 0.86271594 0.73644627 0.85793997 0.78104814 0.84238011 0.81268712 0.65457535 1.0122299000000001 0.85268779 0.61352661 0.83037465 0.74648495 0.55807478 0.73410868
-0.46296555 -0.67848725 -0.66659982 -0.72720675 -0.77209834 -0.88130547 -0.8496939 -1.2677519 -1.219541 -1.1338395000000001 -1.4279445 -1.5642636 -1.8216128 -1.7485221000000002 -1.9290449 -2.1355442000000004 -2.2463926 -2.2156476 -2.1510943 -2.3312285 -1.9414192 -1.5425392 -1.392594 -0.94051585 -0.62262725 -0.14431619 0.32856278 0.5698652 0.99913614 0.96786185 0.83333595 1.2204373 1.0759235 0.95540079 1.0877 0.86271594 0.73644627 0.85793997 0.78104814 0.84238011 0.81268712 0.65457535 1.0122299000000001 0.85268779 0.61352661 0.83037465 0.74648495 0.55807478 0.73410868 0.71616852
-0.67848725 -0.66659982 -0.72720675 -0.77209834 -0.88130547 -0.8496939 -1.2677519 -1.219541 -1.1338395000000001 -1.4279445 -1.5642636 -1.8216128 -1.7485221000000002 -1.9290449 -2.1355442000000004 -2.2463926 -2.2156476 -2.1510943 -2.3312285 -1.9414192 -1.5425392 -1.392594 -0.94051585 -0.62262725 -0.14431619 0.32856278 0.5698652 0.99913614 0.96786185 0.83333595 1.2204373 1.0759235 0.95540079 1.0877 0.86271594 0.73644627 0.85793997 0.78104814 0.84238011 0.81268712 0.65457535 1.0122299000000001 0.85268779 0.61352661 0.83037465 0.74648495 0.55807478 0.73410868 0.71616852 0.65706606
-0.66659982 -0.72720675 -0.77209834 -0.88130547 -0.8496939 -1.2677519 -1.219541 -1.1338395000000001 -1.4279445 -1.5642636 -1.8216128 -1.7485221000000002 -1.9290449 -2.1355442000000004 -2.2463926 -2.2156476 -2.1510943 -2.3312285 -1.9414192 -1.5425392 -1.392594 -0.94051585 -0.62262725 -0.14431619 0.32856278 0.5698652 0.99913614 0.96786185 0.83333595 1.2204373 1.0759235 0.95540079 1.0877 0.86271594 0.73644627 0.85793997 0.78104814 0.84238011 0.81268712 0.65457535 1.0122299000000001 0.85268779 0.61352661 0.83037465 0.74648495 0.55807478 0.73410868 0.71616852 0.65706606 0.58363227
-0.72720675 -0.77209834 -0.88130547 -0.8496939 -1.2677519 -1.219541 -1.1338395000000001 -1.4279445 -1.5642636 -1.8216128 -1.7485221000000002 -1.9290449 -2.1355442000000004 -2.2463926 -2.2156476 -2.1510943 -2.3312285 -1.9414192 -1.5425392 -1.392594 -0.94051585 -0.62262725 -0.14431619 0.32856278 0.5698652 0.99913614 0.96786185 0.83333595 1.2204373 1.0759235 0.95540079 1.0877 0.86271594 0.73644627 0.85793997 0.78104814 0.84238011 0.81268712 0.65457535 1.0122299000000001 0.85268779 0.61352661 0.83037465 0.74648495 0.55807478 0.73410868 0.71616852 0.65706606 0.58363227 0.63082749
-0.77209834 -0.88130547 -0.8496939 -1.2677519 -1.219541 -1.1338395000000001 -1.4279445 -1.5642636 -1.8216128 -1.7485221000000002 -1.9290449 -2.1355442000000004 -2.2463926 -2.2156476 -2.1510943 -2.3312285 -1.9414192 -1.5425392 -1.392594 -0.94051585 -0.62262725 -0.14431619 0.32856278 0.5698652 0.99913614 0.96786185 0.83333595 1.2204373 1.0759235 0.95540079 1.0877 0.86271594 0.73644627 0.85793997 0.78104814 0.84238011 0.81268712 0.65457535 1.0122299000000001 0.85268779 0.61352661 0.83037465 0.74648495 0.55807478 0.73410868 0.71616852 0.65706606 0.58363227 0.63082749 0.59398116
-0.88130547 -0.8496939 -1.2677519 -1.219541 -1.1338395000000001 -1.4279445 -1.5642636 -1.8216128 -1.7485221000000002 -1.9290449 -2.1355442000000004 -2.2463926 -2.2156476 -2.1510943 -2.3312285 -1.9414192 -1.5425392 -1.392594 -0.94051585 -0.62262725 -0.14431619 0.32856278 0.5698652 0.99913614 0.96786185 0.83333595 1.2204373 1.0759235 0.95540079 1.0877 0.86271594 0.73644627 0.85793997 0.78104814 0.84238011 0.81268712 0.65457535 1.0122299000000001 0.85268779 0.61352661 0.83037465 0.74648495 0.55807478 0.73410868 0.71616852 0.65706606 0.58363227 0.63082749 0.59398116 0.41479157
-0.8496939 -1.2677519 -1.219541 -1.1338395000000001 -1.4279445 -1.5642636 -1.8216128 -1.7485221000000002 -1.9290449 -2.1355442000000004 -2.2463926 -2.2156476 -2.1510943 -2.3312285 -1.9414192 -1.5425392 -1.392594 -0.94051585 -0.62262725 -0.14431619 0.32856278 0.5698652 0.99913614 0.96786185 0.83333595 1.2204373 1.0759235 0.95540079 1.0877 0.86271594 0.73644627 0.85793997 0.78104814 0.84238011 0.81268712 0.65457535 1.0122299000000001 0.85268779 0.61352661 0.83037465 0.74648495 0.55807478 0.73410868 0.71616852 0.65706606 0.58363227 0.63082749 0.59398116 0.41479157 0.61573621
-1.2677519 -1.219541 -1.1338395000000001 -1.4279445 -1.5642636 -1.8216128 -1.7485221000000002 -1.9290449 -2.1355442000000004 -2.2463926 -2.2156476 -2.1510943 -2.3312285 -1.9414192 -1.5425392 -1.392594 -0.94051585 -0.62262725 -0.14431619 0.32856278 0.5698652 0.99913614 0.96786185 0.83333595 1.2204373 1.0759235 0.95540079 1.0877 0.86271594 0.73644627 0.85793997 0.78104814 0.84238011 0.81268712 0.65457535 1.0122299000000001 0.85268779 0.61352661 0.83037465 0.74648495 0.55807478 0.73410868 0.71616852 0.65706606 0.58363227 0.63082749 0.59398116 0.41479157 0.61573621 0.48515411
-1.219541 -1.1338395000000001 -1.4279445 -1.5642636 -1.8216128 -1.7485221000000002 -1.9290449 -2.1355442000000004 -2.2463926 -2.2156476 -2.1510943 -2.3312285 -1.9414192 -1.5425392 -1.392594 -0.94051585 -0.62262725 -0.14431619 0.32856278 0.5698652 0.99913614 0.96786185 0.83333595 1.2204373 1.0759235 0.95540079 1.0877 0.86271594 0.73644627 0.85793997 0.78104814 0.84238011 0.81268712 0.65457535 1.0122299000000001 0.85268779 0.61352661 0.83037465 0.74648495 0.55807478 0.73410868 0.71616852 0.65706606 0.58363227 0.63082749 0.59398116 0.41479157 0.61573621 0.48515411 0.43624868
-1.1338395000000001 -1.4279445 -1.5642636 -1.8216128 -1.7485221000000002 -1.9290449 -2.1355442000000004 -2.2463926 -2.2156476 -2.1510943 -2.3312285 -1.9414192 -1.5425392 -1.392594 -0.94051585 -0.62262725 -0.14431619 0.32856278 0.5698652 0.99913614 0.96786185 0.83333595 1.2204373 1.0759235 0.95540079 1.0877 0.86271594 0.73644627 0.85793997 0.78104814 0.84238011 0.81268712 0.65457535 1.0122299000000001 0.85268779 0.61352661 0.83037465 0.74648495 0.55807478 0.73410868 0.71616852 0.65706606 0.58363227 0.63082749 0.59398116 0.41479157 0.61573621 0.48515411 0.43624868 0.44166322
-1.4279445 -1.5642636 -1.8216128 -1.7485221000000002 -1.9290449 -2.1355442000000004 -2.2463926 -2.2156476 -2.1510943 -2.3312285 -1.9414192 -1.5425392 -1.392594 -0.94051585 -0.62262725 -0.14431619 0.32856278 0.5698652 0.99913614 0.96786185 0.83333595 1.2204373 1.0759235 0.95540079 1.0877 0.86271594 0.73644627 0.85793997 0.78104814 0.84238011 0.81268712 0.65457535 1.0122299000000001 0.85268779 0.61352661 0.83037465 0.74648495 0.55807478 0.73410868 0.71616852 0.65706606 0.58363227 0.63082749 0.59398116 0.41479157 0.61573621 0.48515411 0.43624868 0.44166322 0.35273346
-1.5642636 -1.8216128 -1.7485221000000002 -1.9290449 -2.1355442000000004 -2.2463926 -2.2156476 -2.1510943 -2.3312285 -1.9414192 -1.5425392 -1.392594 -0.94051585 -0.62262725 -0.14431619 0.32856278 0.5698652 0.99913614 0.96786185 0.83333595 1.2204373 1.0759235 0.95540079 1.0877 0.86271594 0.73644627 0.85793997 0.78104814 0.84238011 0.81268712 0.65457535 1.0122299000000001 0.85268779 0.61352661 0.83037465 0.74648495 0.55807478 0.73410868 0.71616852 0.65706606 0.58363227 0.63082749 0.59398116 0.41479157 0.61573621 0.48515411 0.43624868 0.44166322 0.35273346 0.40225609
-1.8216128 -1.7485221000000002 -1.9290449 -2.1355442000000004 -2.2463926 -2.2156476 -2.1510943 -2.3312285 -1.9414192 -1.5425392 -1.392594 -0.94051585 -0.62262725 -0.14431619 0.32856278 0.5698652 0.99913614 0.96786185 0.83333595 1.2204373 1.0759235 0.95540079 1.0877 0.86271594 0.73644627 0.85793997 0.78104814 0.84238011 0.81268712 0.65457535 1.0122299000000001 0.85268779 0.61352661 0.83037465 0.74648495 0.55807478 0.73410868 0.71616852 0.65706606 0.58363227 0.63082749 0.59398116 0.41479157 0.61573621 0.48515411 0.43624868 0.44166322 0.35273346 0.40225609 0.32067925
-1.7485221000000002 -1.9290449 -2.1355442000000004 -2.2463926 -2.2156476 -2.1510943 -2.3312285 -1.9414192 -1.5425392 -1.392594 -0.94051585 -0.62262725 -0.14431619 0.32856278 0.5698652 0.99913614 0.96786185 0.83333595 1.2204373 1.0759235 0.95540079 1.0877 0.86271594 0.73644627 0.85793997 0.78104814 0.84238011 0.81268712 0.65457535 1.0122299000000001 0.85268779 0.61352661 0.83037465 0.74648495 0.55807478 0.73410868 0.71616852 0.65706606 0.58363227 0.63082749 0.59398116 0.41479157 0.61573621 0.48515411 0.43624868 0.44166322 0.35273346 0.40225609 0.32067925 0.70177722
-1.9290449 -2.1355442000000004 -2.2463926 -2.2156476 -2.1510943 -2.3312285 -1.9414192 -1.5425392 -1.392594 -0.94051585 -0.62262725 -0.14431619 0.32856278 0.5698652 0.99913614 0.96786185 0.83333595 1.2204373 1.0759235 0.95540079 1.0877 0.86271594 0.73644627 0.85793997 0.78104814 0.84238011 0.81268712 0.65457535 1.0122299000000001 0.85268779 0.61352661 0.83037465 0.74648495 0.55807478 0.73410868 0.71616852 0.65706606 0.58363227 0.63082749 0.59398116 0.41479157 0.61573621 0.48515411 0.43624868 0.44166322 0.35273346 0.40225609 0.32067925 0.70177722 0.59395432
-2.1355442000000004 -2.2463926 -2.2156476 -2.1510943 -2.3312285 -1.9414192 -1.5425392 -1.392594 -0.94051585 -0.62262725 -0.14431619 0.32856278 0.5698652 0.99913614 0.96786185 0.83333595 1.2204373 1.0759235 0.95540079 1.0877 0.86271594 0.73644627 0.85793997 0.78104814 0.84238011 0.81268712 0.65457535 1.0122299000000001 0.85268779 0.61352661 0.83037465 0.74648495 0.55807478 0.73410868 0.71616852 0.65706606 0.58363227 0.63082749 0.59398116 0.41479157 0.61573621 0.48515411 0.43624868 0.44166322 0.35273346 0.40225609 0.32067925 0.70177722 0.59395432 0.70273438
-2.2463926 -2.2156476 -2.1510943 -2.3312285 -1.9414192 -1.5425392 -1.392594 -0.94051585 -0.62262725 -0.14431619 0.32856278 0.5698652 0.99913614 0.96786185 0.83333595 1.2204373 1.0759235 0.95540079 1.0877 0.86271594 0.73644627 0.85793997 0.78104814 0.84238011 0.81268712 0.65457535 1.0122299000000001 0.85268779 0.61352661 0.83037465 0.74648495 0.55807478 0.73410868 0.71616852 0.65706606 0.58363227 0.63082749 0.59398116 0.41479157 0.61573621 0.48515411 0.43624868 0.44166322 0.35273346 0.40225609 0.32067925 0.70177722 0.59395432 0.70273438 0.65788425
-2.2156476 -2.1510943 -2.3312285 -1.9414192 -1.5425392 -1.392594 -0.94051585 -0.62262725 -0.14431619 0.32856278 0.5698652 0.99913614 0.96786185 0.83333595 1.2204373 1.0759235 0.95540079 1.0877 0.86271594 0.73644627 0.85793997 0.78104814 0.84238011 0.81268712 0.65457535 1.0122299000000001 0.85268779 0.61352661 0.83037465 0.74648495 0.55807478 0.73410868 0.71616852 0.65706606 0.58363227 0.63082749 0.59398116 0.41479157 0.61573621 0.48515411 0.43624868 0.44166322 0.35273346 0.40225609 0.32067925 0.70177722 0.59395432 0.70273438 0.65788425 0.027779585
-2.1510943 -2.3312285 -1.9414192 -1.5425392 -1.392594 -0.94051585 -0.62262725 -0.14431619 0.32856278 0.5698652 0.99913614 0.96786185 0.83333595 1.2204373 1.0759235 0.95540079 1.0877 0.86271594 0.73644627 0.85793997 0.78104814 0.84238011 0.81268712 0.65457535 1.0122299000000001 0.85268779 0.61352661 0.83037465 0.74648495 0.55807478 0.73410868 0.71616852 0.65706606 0.58363227 0.63082749 0.59398116 0.41479157 0.61573621 0.48515411 0.43624868 0.44166322 0.35273346 0.40225609 0.32067925 0.70177722 0.59395432 0.70273438 0.65788425 0.027779585 0.20896727
-2.3312285 -1.9414192 -1.5425392 -1.392594 -0.94051585 -0.62262725 -0.14431619 0.32856278 0.5698652 0.99913614 0.96786185 0.83333595 1.2204373 1.0759235 0.95540079 1.0877 0.86271594 0.73644627 0.85793997 0.78104814 0.84238011 0.81268712 0.65457535 1.0122299000000001 0.85268779 0.61352661 0.83037465 0.74648495 0.55807478 0.73410868 0.71616852 0.65706606 0.58363227 0.63082749 0.59398116 0.41479157 0.61573621 0.48515411 0.43624868 0.44166322 0.35273346 0.40225609 0.32067925 0.70177722 0.59395432 0.70273438 0.65788425 0.027779585 0.20896727 0.06826547200000001
-1.9414192 -1.5425392 -1.392594 -0.94051585 -0.62262725 -0.14431619 0.32856278 0.5698652 0.99913614 0.96786185 0.83333595 1.2204373 1.0759235 0.95540079 1.0877 0.86271594 0.73644627 0.85793997 0.78104814 0.84238011 0.81268712 0.65457535 1.0122299000000001 0.85268779 0.61352661 0.83037465 0.74648495 0.55807478 0.73410868 0.71616852 0.65706606 0.58363227 0.63082749 0.59398116 0.41479157 0.61573621 0.48515411 0.43624868 0.44166322 0.35273346 0.40225609 0.32067925 0.70177722 0.59395432 0.70273438 0.65788425 0.027779585 0.20896727 0.06826547200000001 -0.11798829
-1.5425392 -1.392594 -0.94051585 -0.62262725 -0.14431619 0.32856278 0.5698652 0.99913614 0.96786185 0.83333595 1.2204373 1.0759235 0.95540079 1.0877 0.86271594 0.73644627 0.85793997 0.78104814 0.84238011 0.81268712 0.65457535 1.0122299000000001 0.85268779 0.61352661 0.83037465 0.74648495 0.55807478 0.73410868 0.71616852 0.65706606 0.58363227 0.63082749 0.59398116 0.41479157 0.61573621 0.48515411 0.43624868 0.44166322 0.35273346 0.40225609 0.32067925 0.70177722 0.59395432 0.70273438 0.65788425 0.027779585 0.20896727 0.06826547200000001 -0.11798829 -0.10501847
-1.392594 -0.94051585 -0.62262725 -0.14431619 0.32856278 0.5698652 0.99913614 0.96786185 0.83333595 1.2204373 1.0759235 0.95540079 1.0877 0.86271594 0.73644627 0.85793997 0.78104814 0.84238011 0.81268712 0.65457535 1.0122299000000001 0.85268779 0.61352661 0.83037465 0.74648495 0.55807478 0.73410868 0.71616852 0.65706606 0.58363227 0.63082749 0.59398116 0.41479157 0.61573621 0.48515411 0.43624868 0.44166322 0.35273346 0.40225609 0.32067925 0.70177722 0.59395432 0.70273438 0.65788425 0.027779585 0.20896727 0.06826547200000001 -0.11798829 -0.10501847 -0.09065247800000001
-0.94051585 -0.62262725 -0.14431619 0.32856278 0.5698652 0.99913614 0.96786185 0.83333595 1.2204373 1.0759235 0.95540079 1.0877 0.86271594 0.73644627 0.85793997 0.78104814 0.84238011 0.81268712 0.65457535 1.0122299000000001 0.85268779 0.61352661 0.83037465 0.74648495 0.55807478 0.73410868 0.71616852 0.65706606 0.58363227 0.63082749 0.59398116 0.41479157 0.61573621 0.48515411 0.43624868 0.44166322 0.35273346 0.40225609 0.32067925 0.70177722 0.59395432 0.70273438 0.65788425 0.027779585 0.20896727 0.06826547200000001 -0.11798829 -0.10501847 -0.09065247800000001 -0.18747854
-0.62262725 -0.14431619 0.32856278 0.5698652 0.99913614 0.96786185 0.83333595 1.2204373 1.0759235 0.95540079 1.0877 0.86271594 0.73644627 0.85793997 0.78104814 0.84238011 0.81268712 0.65457535 1.0122299000000001 0.85268779 0.61352661 0.83037465 0.74648495 0.55807478 0.73410868 0.71616852 0.65706606 0.58363227 0.63082749 0.59398116 0.41479157 0.61573621 0.48515411 0.43624868 0.44166322 0.35273346 0.40225609 0.32067925 0.70177722 0.59395432 0.70273438 0.65788425 0.027779585 0.20896727 0.06826547200000001 -0.11798829 -0.10501847 -0.09065247800000001 -0.18747854 -0.13078377
-0.14431619 0.32856278 0.5698652 0.99913614 0.96786185 0.83333595 1.2204373 1.0759235 0.95540079 1.0877 0.86271594 0.73644627 0.85793997 0.78104814 0.84238011 0.81268712 0.65457535 1.0122299000000001 0.85268779 0.61352661 0.83037465 0.74648495 0.55807478 0.73410868 0.71616852 0.65706606 0.58363227 0.63082749 0.59398116 0.41479157 0.61573621 0.48515411 0.43624868 0.44166322 0.35273346 0.40225609 0.32067925 0.70177722 0.59395432 0.70273438 0.65788425 0.027779585 0.20896727 0.06826547200000001 -0.11798829 -0.10501847 -0.09065247800000001 -0.18747854 -0.13078377 -0.12055911
0.32856278 0.5698652 0.99913614 0.96786185 0.83333595 1.2204373 1.0759235 0.95540079 1.0877 0.86271594 0.73644627 0.85793997 0.78104814 0.84238011 0.81268712 0.65457535 1.0122299000000001 0.85268779 0.61352661 0.83037465 0.74648495 0.55807478 0.73410868 0.71616852 0.65706606 0.58363227 0.63082749 0.59398116 0.41479157 0.61573621 0.48515411 0.43624868 0.44166322 0.35273346 0.40225609 0.32067925 0.70177722 0.59395432 0.70273438 0.65788425 0.027779585 0.20896727 0.06826547200000001 -0.11798829 -0.10501847 -0.09065247800000001 -0.18747854 -0.13078377 -0.12055911 -0.090310053
0.5698652 0.99913614 0.96786185 0.83333595 1.2204373 1.0759235 0.95540079 1.0877 0.86271594 0.73644627 0.85793997 0.78104814 0.84238011 0.81268712 0.65457535 1.0122299000000001 0.85268779 0.61352661 0.83037465 0.74648495 0.55807478 0.73410868 0.71616852 0.65706606 0.58363227 0.63082749 0.59398116 0.41479157 0.61573621 0.48515411 0.43624868 0.44166322 0.35273346 0.40225609 0.32067925 0.70177722 0.59395432 0.70273438 0.65788425 0.027779585 0.20896727 0.06826547200000001 -0.11798829 -0.10501847 -0.09065247800000001 -0.18747854 -0.13078377 -0.12055911 -0.090310053 -0.12118075
0.99913614 0.96786185 0.83333595 1.2204373 1.0759235 0.95540079 1.0877 0.86271594 0.73644627 0.85793997 0.78104814 0.84238011 0.81268712 0.65457535 1.0122299000000001 0.85268779 0.61352661 0.83037465 0.74648495 0.55807478 0.73410868 0.71616852 0.65706606 0.58363227 0.63082749 0.59398116 0.41479157 0.61573621 0.48515411 0.43624868 0.44166322 0.35273346 0.40225609 0.32067925 0.70177722 0.59395432 0.70273438 0.65788425 0.027779585 0.20896727 0.06826547200000001 -0.11798829 -0.10501847 -0.09065247800000001 -0.18747854 -0.13078377 -0.12055911 -0.090310053 -0.12118075 -0.24796264
0.96786185 0.83333595 1.2204373 1.0759235 0.95540079 1.0877 0.86271594 0.73644627 0.85793997 0.78104814 0.84238011 0.81268712 0.65457535 1.0122299000000001 0.85268779 0.61352661 0.83037465 0.74648495 0.55807478 0.73410868 0.71616852 0.65706606 0.58363227 0.63082749 0.59398116 0.41479157 0.61573621 0.48515411 0.43624868 0.44166322 0.35273346 0.40225609 0.32067925 0.70177722 0.59395432 0.70273438 0.65788425 0.027779585 0.20896727 0.06826547200000001 -0.11798829 -0.10501847 -0.09065247800000001 -0.18747854 -0.13078377 -0.12055911 -0.090310053 -0.12118075 -0.24796264 -0.014804831000000001
0.83333595 1.2204373 1.0759235 0.95540079 1.0877 0.86271594 0.73644627 0.85793997 0.78104814 0.84238011 0.81268712 0.65457535 1.0122299000000001 0.85268779 0.61352661 0.83037465 0.74648495 0.55807478 0.73410868 0.71616852 0.65706606 0.58363227 0.63082749 0.59398116 0.41479157 0.61573621 0.48515411 0.43624868 0.44166322 0.35273346 0.40225609 0.32067925 0.70177722 0.59395432 0.70273438 0.65788425 0.027779585 0.20896727 0.06826547200000001 -0.11798829 -0.10501847 -0.09065247800000001 -0.18747854 -0.13078377 -0.12055911 -0.090310053 -0.12118075 -0.24796264 -0.014804831000000001 -0.031834254
1.2204373 1.0759235 0.95540079 1.0877 0.86271594 0.73644627 0.85793997 0.78104814 0.84238011 0.81268712 0.65457535 1.0122299000000001 0.85268779 0.61352661 0.83037465 0.74648495 0.55807478 0.73410868 0.71616852 0.65706606 0.58363227 0.63082749 0.59398116 0.41479157 0.61573621 0.48515411 0.43624868 0.44166322 0.35273346 0.40225609 0.32067925 0.70177722 0.59395432 0.70273438 0.65788425 0.027779585 0.20896727 0.06826547200000001 -0.11798829 -0.10501847 -0.09065247800000001 -0.18747854 -0.13078377 -0.12055911 -0.090310053 -0.12118075 -0.24796264 -0.014804831000000001 -0.031834254 -0.16428974
1.0759235 0.95540079 1.0877 0.86271594 0.73644627 0.85793997 0.78104814 0.84238011 0.81268712 0.65457535 1.0122299000000001 0.85268779 0.61352661 0.83037465 0.74648495 0.55807478 0.73410868 0.71616852 0.65706606 0.58363227 0.63082749 0.59398116 0.41479157 0.61573621 0.48515411 0.43624868 0.44166322 0.35273346 0.40225609 0.32067925 0.70177722 0.59395432 0.70273438 0.65788425 0.027779585 0.20896727 0.06826547200000001 -0.11798829 -0.10501847 -0.09065247800000001 -0.18747854 -0.13078377 -0.12055911 -0.090310053 -0.12118075 -0.24796264 -0.014804831000000001 -0.031834254 -0.16428974 -0.06309293099999999
0.95540079 1.0877 0.86271594 0.73644627 0.85793997 0.78104814 0.84238011 0.81268712 0.65457535 1.0122299000000001 0.85268779 0.61352661 0.83037465 0.74648495 0.55807478 0.73410868 0.71616852 0.65706606 0.58363227 0.63082749 0.59398116 0.41479157 0.61573621 0.48515411 0.43624868 0.44166322 0.35273346 0.40225609 0.32067925 0.70177722 0.59395432 0.70273438 0.65788425 0.027779585 0.20896727 0.06826547200000001 -0.11798829 -0.10501847 -0.09065247800000001 -0.18747854 -0.13078377 -0.12055911 -0.090310053 -0.12118075 -0.24796264 -0.014804831000000001 -0.031834254 -0.16428974 -0.06309293099999999 -0.1060261
1.0877 0.86271594 0.73644627 0.85793997 0.78104814 0.84238011 0.81268712 0.65457535 1.0122299000000001 0.85268779 0.61352661 0.83037465 0.74648495 0.55807478 0.73410868 0.71616852 0.65706606 0.58363227 0.63082749 0.59398116 0.41479157 0.61573621 0.48515411 0.43624868 0.44166322 0.35273346 0.40225609 0.32067925 0.70177722 0.59395432 0.70273438 0.65788425 0.027779585 0.20896727 0.06826547200000001 -0.11798829 -0.10501847 -0.09065247800000001 -0.18747854 -0.13078377 -0.12055911 -0.090310053 -0.12118075 -0.24796264 -0.014804831000000001 -0.031834254 -0.16428974 -0.06309293099999999 -0.1060261 0.0018426594
