0.068846565 0.80884529 2.6079585 3.6402976000000002 2.0932971 0.42604149 -0.95675232 -0.45170082 0.29688267 0.43301091 0.35309097 -0.33603917 0.14740177 -0.67365902 -0.91681541 -0.9012812 -0.99310462 -0.93581397 -1.2372415 -1.1273011 -1.2826540000000002 -1.5474282 -1.4292194999999999 -1.4337211 -1.4539514 -1.8290148999999998 -1.9819171999999998 -1.877888 -2.0599423 -1.9537648 -1.8248292000000002 -1.9793392 -1.2836669 -1.4264364999999999 -1.4780688999999998 -0.78744939 -0.60358092 -0.24978571 -0.022740876 0.39847713 0.67979006 0.73841557 1.0779522 0.96626768 0.99012207 1.1601625 1.015825 0.94281447 0.86369756 0.7572688
0.80884529 2.6079585 3.6402976000000002 2.0932971 0.42604149 -0.95675232 -0.45170082 0.29688267 0.43301091 0.35309097 -0.33603917 0.14740177 -0.67365902 -0.91681541 -0.9012812 -0.99310462 -0.93581397 -1.2372415 -1.1273011 -1.2826540000000002 -1.5474282 -1.4292194999999999 -1.4337211 -1.4539514 -1.8290148999999998 -1.9819171999999998 -1.877888 -2.0599423 -1.9537648 -1.8248292000000002 -1.9793392 -1.2836669 -1.4264364999999999 -1.4780688999999998 -0.78744939 -0.60358092 -0.24978571 -0.022740876 0.39847713 0.67979006 0.73841557 1.0779522 0.96626768 0.99012207 1.1601625 1.015825 0.94281447 0.86369756 0.7572688 0.57539129
2.6079585 3.6402976000000002 2.0932971 0.42604149 -0.95675232 -0.45170082 0.29688267 0.43301091 0.35309097 -0.33603917 0.14740177 -0.67365902 -0.91681541 -0.9012812 -0.99310462 -0.93581397 -1.2372415 -1.1273011 -1.2826540000000002 -1.5474282 -1.4292194999999999 -1.4337211 -1.4539514 -1.8290148999999998 -1.9819171999999998 -1.877888 -2.0599423 -1.9537648 -1.8248292000000002 -1.9793392 -1.2836669 -1.4264364999999999 -1.4780688999999998 -0.78744939 -0.60358092 -0.24978571 -0.022740876 0.39847713 0.67979006 0.73841557 1.0779522 0.96626768 0.99012207 1.1601625 1.015825 0.94281447 0.86369756 0.7572688 0.57539129 0.6607389
3.6402976000000002 2.0932971 0.42604149 -0.95675232 -0.45170082 0.29688267 0.43301091 0.35309097 -0.33603917 0.14740177 -0.67365902 -0.91681541 -0.9012812 -0.99310462 -0.93581397 -1.2372415 -1.1273011 -1.2826540000000002 -1.5474282 -1.4292194999999999 -1.4337211 -1.4539514 -1.8290148999999998 -1.9819171999999998 -1.877888 -2.0599423 -1.9537648 -1.8248292000000002 -1.9793392 -1.2836669 -1.4264364999999999 -1.4780688999999998 -0.78744939 -0.60358092 -0.24978571 -0.022740876 0.39847713 0.67979006 0.73841557 1.0779522 0.96626768 0.99012207 1.1601625 1.015825 0.94281447 0.86369756 0.7572688 0.57539129 0.6607389 0.88335663
2.0932971 0.42604149 -0.95675232 -0.45170082 0.29688267 0.43301091 0.35309097 -0.33603917 0.14740177 -0.67365902 -0.91681541 -0.9012812 -0.99310462 -0.93581397 -1.2372415 -1.1273011 -1.2826540000000002 -1.5474282 -1.4292194999999999 -1.4337211 -1.4539514 -1.8290148999999998 -1.9819171999999998 -1.877888 -2.0599423 -1.9537648 -1.8248292000000002 -1.9793392 -1.2836669 -1.4264364999999999 -1.4780688999999998 -0.78744939 -0.60358092 -0.24978571 -0.022740876 0.39847713 0.67979006 0.73841557 1.0779522 0.96626768 0.99012207 1.1601625 1.015825 0.94281447 0.86369756 0.7572688 0.57539129 0.6607389 0.88335663 0.57993723
0.42604149 -0.95675232 -0.45170082 0.29688267 0.43301091 0.35309097 -0.33603917 0.14740177 -0.67365902 -0.91681541 -0.9012812 -0.99310462 -0.93581397 -1.2372415 -1.1273011 -1.2826540000000002 -1.5474282 -1.4292194999999999 -1.4337211 -1.4539514 -1.8290148999999998 -1.9819171999999998 -1.877888 -2.0599423 -1.9537648 -1.8248292000000002 -1.9793392 -1.2836669 -1.4264364999999999 -1.4780688999999998 -0.78744939 -0.60358092 -0.24978571 -0.022740876 0.39847713 0.67979006 0.73841557 1.0779522 0.96626768 0.99012207 1.1601625 1.015825 0.94281447 0.86369756 0.7572688 0.57539129 0.6607389 0.88335663 0.57993723 0.54936763
-0.95675232 -0.45170082 0.29688267 0.43301091 0.35309097 -0.33603917 0.14740177 -0.67365902 -0.91681541 -0.9012812 -0.99310462 -0.93581397 -1.2372415 -1.1273011 -1.2826540000000002 -1.5474282 -1.4292194999999999 -1.4337211 -1.4539514 -1.8290148999999998 -1.9819171999999998 -1.877888 -2.0599423 -1.9537648 -1.8248292000000002 -1.9793392 -1.2836669 -1.4264364999999999 -1.4780688999999998 -0.78744939 -0.60358092 -0.24978571 -0.022740876 0.39847713 0.67979006 0.73841557 1.0779522 0.96626768 0.99012207 1.1601625 1.015825 0.94281447 0.86369756 0.7572688 0.57539129 0.6607389 0.88335663 0.57993723 0.54936763 0.75627311
-0.45170082 0.29688267 0.43301091 0.35309097 -0.33603917 0.14740177 -0.67365902 -0.91681541 -0.9012812 -0.99310462 -0.93581397 -1.2372415 -1.1273011 -1.2826540000000002 -1.5474282 -1.4292194999999999 -1.4337211 -1.4539514 -1.8290148999999998 -1.9819171999999998 -1.877888 -2.0599423 -1.9537648 -1.8248292000000002 -1.9793392 -1.2836669 -1.4264364999999999 -1.4780688999999998 -0.78744939 -0.60358092 -0.24978571 -0.022740876 0.39847713 0.67979006 0.73841557 1.0779522 0.96626768 0.99012207 1.1601625 1.015825 0.94281447 0.86369756 0.7572688 0.57539129 0.6607389 0.88335663 0.57993723 0.54936763 0.75627311 0.52775792
0.29688267 0.43301091 0.35309097 -0.33603917 0.14740177 -0.67365902 -0.91681541 -0.9012812 -0.99310462 -0.93581397 -1.2372415 -1.1273011 -1.2826540000000002 -1.5474282 -1.4292194999999999 -1.4337211 -1.4539514 -1.8290148999999998 -1.9819171999999998 -1.877888 -2.0599423 -1.9537648 -1.8248292000000002 -1.9793392 -1.2836669 -1.4264364999999999 -1.4780688999999998 -0.78744939 -0.60358092 -0.24978571 -0.022740876 0.39847713 0.67979006 0.73841557 1.0779522 0.96626768 0.99012207 1.1601625 1.015825 0.94281447 0.86369756 0.7572688 0.57539129 0.6607389 0.88335663 0.57993723 0.54936763 0.75627311 0.52775792 0.50516629
0.43301091 0.35309097 -0.33603917 0.14740177 -0.67365902 -0.91681541 -0.9012812 -0.99310462 -0.93581397 -1.2372415 -1.1273011 -1.2826540000000002 -1.5474282 -1.4292194999999999 -1.4337211 -1.4539514 -1.8290148999999998 -1.9819171999999998 -1.877888 -2.0599423 -1.9537648 -1.8248292000000002 -1.9793392 -1.2836669 -1.4264364999999999 -1.4780688999999998 -0.78744939 -0.60358092 -0.24978571 -0.022740876 0.39847713 0.67979006 0.73841557 1.0779522 0.96626768 0.99012207 1.1601625 1.015825 0.94281447 0.86369756 0.7572688 0.57539129 0.6607389 0.88335663 0.57993723 0.54936763 0.75627311 0.52775792 0.50516629 0.62776202
0.35309097 -0.33603917 0.14740177 -0.67365902 -0.91681541 -0.9012812 -0.99310462 -0.93581397 -1.2372415 -1.1273011 -1.2826540000000002 -1.5474282 -1.4292194999999999 -1.4337211 -1.4539514 -1.8290148999999998 -1.9819171999999998 -1.877888 -2.0599423 -1.9537648 -1.8248292000000002 -1.9793392 -1.2836669 -1.4264364999999999 -1.4780688999999998 -0.78744939 -0.60358092 -0.24978571 -0.022740876 0.39847713 0.67979006 0.73841557 1.0779522 0.96626768 0.99012207 1.1601625 1.015825 0.94281447 0.86369756 0.7572688 0.57539129 0.6607389 0.88335663 0.57993723 0.54936763 0.75627311 0.52775792 0.50516629 0.62776202 0.64241568
-0.33603917 0.14740177 -0.67365902 -0.91681541 -0.9012812 -0.99310462 -0.93581397 -1.2372415 -1.1273011 -1.2826540000000002 -1.5474282 -1.4292194999999999 -1.4337211 -1.4539514 -1.8290148999999998 -1.9819171999999998 -1.877888 -2.0599423 -1.9537648 -1.8248292000000002 -1.9793392 -1.2836669 -1.4264364999999999 -1.4780688999999998 -0.78744939 -0.60358092 -0.24978571 -0.022740876 0.39847713 0.67979006 0.73841557 1.0779522 0.96626768 0.99012207 1.1601625 1.015825 0.94281447 0.86369756 0.7572688 0.57539129 0.6607389 0.88335663 0.57993723 0.54936763 0.75627311 0.52775792 0.50516629 0.62776202 0.64241568 0.61129848
0.14740177 -0.67365902 -0.91681541 -0.9012812 -0.99310462 -0.93581397 -1.2372415 -1.1273011 -1.2826540000000002 -1.5474282 -1.4292194999999999 -1.4337211 -1.4539514 -1.8290148999999998 -1.9819171999999998 -1.877888 -2.0599423 -1.9537648 -1.8248292000000002 -1.9793392 -1.2836669 -1.4264364999999999 -1.4780688999999998 -0.78744939 -0.60358092 -0.24978571 -0.022740876 0.39847713 0.67979006 0.73841557 1.0779522 0.96626768 0.99012207 1.1601625 1.015825 0.94281447 0.86369756 0.7572688 0.57539129 0.6607389 0.88335663 0.57993723 0.54936763 0.75627311 0.52775792 0.50516629 0.62776202 0.64241568 0.61129848 0.51007263
-0.67365902 -0.91681541 -0.9012812 -0.99310462 -0.93581397 -1.2372415 -1.1273011 -1.2826540000000002 -1.5474282 -1.4292194999999999 -1.4337211 -1.4539514 -1.8290148999999998 -1.9819171999999998 -1.877888 -2.0599423 -1.9537648 -1.8248292000000002 -1.9793392 -1.2836669 -1.4264364999999999 -1.4780688999999998 -0.78744939 -0.60358092 -0.24978571 -0.022740876 0.39847713 0.67979006 0.73841557 1.0779522 0.96626768 0.99012207 1.1601625 1.015825 0.94281447 0.86369756 0.7572688 0.57539129 0.6607389 0.88335663 0.57993723 0.54936763 0.75627311 0.52775792 0.50516629 0.62776202 0.64241568 0.61129848 0.51007263 0.44491603
-0.91681541 -0.9012812 -0.99310462 -0.93581397 -1.2372415 -1.1273011 -1.2826540000000002 -1.5474282 -1.4292194999999999 -1.4337211 -1.4539514 -1.8290148999999998 -1.9819171999999998 -1.877888 -2.0599423 -1.9537648 -1.8248292000000002 -1.9793392 -1.2836669 -1.4264364999999999 -1.4780688999999998 -0.78744939 -0.60358092 -0.24978571 -0.022740876 0.39847713 0.67979006 0.73841557 1.0779522 0.96626768 0.99012207 1.1601625 1.015825 0.94281447 0.86369756 0.7572688 0.57539129 0.6607389 0.88335663 0.57993723 0.54936763 0.75627311 0.52775792 0.50516629 0.62776202 0.64241568 0.61129848 0.51007263 0.44491603 0.5677236
-0.9012812 -0.99310462 -0.93581397 -1.2372415 -1.1273011 -1.2826540000000002 -1.5474282 -1.4292194999999999 -1.4337211 -1.4539514 -1.8290148999999998 -1.9819171999999998 -1.877888 -2.0599423 -1.9537648 -1.8248292000000002 -1.9793392 -1.2836669 -1.4264364999999999 -1.4780688999999998 -0.78744939 -0.60358092 -0.24978571 -0.022740876 0.39847713 0.67979006 0.73841557 1.0779522 0.96626768 0.99012207 1.1601625 1.015825 0.94281447 0.86369756 0.7572688 0.57539129 0.6607389 0.88335663 0.57993723 0.54936763 0.75627311 0.52775792 0.50516629 0.62776202 0.64241568 0.61129848 0.51007263 0.44491603 0.5677236 0.41104608
-0.99310462 -0.93581397 -1.2372415 -1.1273011 -1.2826540000000002 -1.5474282 -1.4292194999999999 -1.4337211 -1.4539514 -1.8290148999999998 -1.9819171999999998 -1.877888 -2.0599423 -1.9537648 -1.8248292000000002 -1.9793392 -1.2836669 -1.4264364999999999 -1.4780688999999998 -0.78744939 -0.60358092 -0.24978571 -0.022740876 0.39847713 0.67979006 0.73841557 1.0779522 0.96626768 0.99012207 1.1601625 1.015825 0.94281447 0.86369756 0.7572688 0.57539129 0.6607389 0.88335663 0.57993723 0.54936763 0.75627311 0.52775792 0.50516629 0.62776202 0.64241568 0.61129848 0.51007263 0.44491603 0.5677236 0.41104608 0.35670535
-0.93581397 -1.2372415 -1.1273011 -1.2826540000000002 -1.5474282 -1.4292194999999999 -1.4337211 -1.4539514 -1.8290148999999998 -1.9819171999999998 -1.877888 -2.0599423 -1.9537648 -1.8248292000000002 -1.9793392 -1.2836669 -1.4264364999999999 -1.4780688999999998 -0.78744939 -0.60358092 -0.24978571 -0.022740876 0.39847713 0.67979006 0.73841557 1.0779522 0.96626768 0.99012207 1.1601625 1.015825 0.94281447 0.86369756 0.7572688 0.57539129 0.6607389 0.88335663 0.57993723 0.54936763 0.75627311 0.52775792 0.50516629 0.62776202 0.64241568 0.61129848 0.51007263 0.44491603 0.5677236 0.41104608 0.35670535 0.48312761
-1.2372415 -1.1273011 -1.2826540000000002 -1.5474282 -1.4292194999999999 -1.4337211 -1.4539514 -1.8290148999999998 -1.9819171999999998 -1.877888 -2.0599423 -1.9537648 -1.8248292000000002 -1.9793392 -1.2836669 -1.4264364999999999 -1.4780688999999998 -0.78744939 -0.60358092 -0.24978571 -0.022740876 0.39847713 0.67979006 0.73841557 1.0779522 0.96626768 0.99012207 1.1601625 1.015825 0.94281447 0.86369756 0.7572688 0.57539129 0.6607389 0.88335663 0.57993723 0.54936763 0.75627311 0.52775792 0.50516629 0.62776202 0.64241568 0.61129848 0.51007263 0.44491603 0.5677236 0.41104608 0.35670535 0.48312761 0.37172147
-1.1273011 -1.2826540000000002 -1.5474282 -1.4292194999999999 -1.4337211 -1.4539514 -1.8290148999999998 -1.9819171999999998 -1.877888 -2.0599423 -1.9537648 -1.8248292000000002 -1.9793392 -1.2836669 -1.4264364999999999 -1.4780688999999998 -0.78744939 -0.60358092 -0.24978571 -0.022740876 0.39847713 0.67979006 0.73841557 1.0779522 0.96626768 0.99012207 1.1601625 1.015825 0.94281447 0.86369756 0.7572688 0.57539129 0.6607389 0.88335663 0.57993723 0.54936763 0.75627311 0.52775792 0.50516629 0.62776202 0.64241568 0.61129848 0.51007263 0.44491603 0.5677236 0.41104608 0.35670535 0.48312761 0.37172147 0.40620356
-1.2826540000000002 -1.5474282 -1.4292194999999999 -1.4337211 -1.4539514 -1.8290148999999998 -1.9819171999999998 -1.877888 -2.0599423 -1.9537648 -1.8248292000000002 -1.9793392 -1.2836669 -1.4264364999999999 -1.4780688999999998 -0.78744939 -0.60358092 -0.24978571 -0.022740876 0.39847713 0.67979006 0.73841557 1.0779522 0.96626768 0.99012207 1.1601625 1.015825 0.94281447 0.86369756 0.7572688 0.57539129 0.6607389 0.88335663 0.57993723 0.54936763 0.75627311 0.52775792 0.50516629 0.62776202 0.64241568 0.61129848 0.51007263 0.44491603 0.5677236 0.41104608 0.35670535 0.48312761 0.37172147 0.40620356 0.16768971
-1.5474282 -1.4292194999999999 -1.4337211 -1.4539514 -1.8290148999999998 -1.9819171999999998 -1.877888 -2.0599423 -1.9537648 -1.8248292000000002 -1.9793392 -1.2836669 -1.4264364999999999 -1.4780688999999998 -0.78744939 -0.60358092 -0.24978571 -0.022740876 0.39847713 0.67979006 0.73841557 1.0779522 0.96626768 0.99012207 1.1601625 1.015825 0.94281447 0.86369756 0.7572688 0.57539129 0.6607389 0.88335663 0.57993723 0.54936763 0.75627311 0.52775792 0.50516629 0.62776202 0.64241568 0.61129848 0.51007263 0.44491603 0.5677236 0.41104608 0.35670535 0.48312761 0.37172147 0.40620356 0.16768971 0.32064458
-1.4292194999999999 -1.4337211 -1.4539514 -1.8290148999999998 -1.9819171999999998 -1.877888 -2.0599423 -1.9537648 -1.8248292000000002 -1.9793392 -1.2836669 -1.4264364999999999 -1.4780688999999998 -0.78744939 -0.60358092 -0.24978571 -0.022740876 0.39847713 0.67979006 0.73841557 1.0779522 0.96626768 0.99012207 1.1601625 1.015825 0.94281447 0.86369756 0.7572688 0.57539129 0.6607389 0.88335663 0.57993723 0.54936763 0.75627311 0.52775792 0.50516629 0.62776202 0.64241568 0.61129848 0.51007263 0.44491603 0.5677236 0.41104608 0.35670535 0.48312761 0.37172147 0.40620356 0.16768971 0.32064458 0.36711015
-1.4337211 -1.4539514 -1.8290148999999998 -1.9819171999999998 -1.877888 -2.0599423 -1.9537648 -1.8248292000000002 -1.9793392 -1.2836669 -1.4264364999999999 -1.4780688999999998 -0.78744939 -0.60358092 -0.24978571 -0.022740876 0.39847713 0.67979006 0.73841557 1.0779522 0.96626768 0.99012207 1.1601625 1.015825 0.94281447 0.86369756 0.7572688 0.57539129 0.6607389 0.88335663 0.57993723 0.54936763 0.75627311 0.52775792 0.50516629 0.62776202 0.64241568 0.61129848 0.51007263 0.44491603 0.5677236 0.41104608 0.35670535 0.48312761 0.37172147 0.40620356 0.16768971 0.32064458 0.36711015 0.44763161
-1.4539514 -1.8290148999999998 -1.9819171999999998 -1.877888 -2.0599423 -1.9537648 -1.8248292000000002 -1.9793392 -1.2836669 -1.4264364999999999 -1.4780688999999998 -0.78744939 -0.60358092 -0.24978571 -0.022740876 0.39847713 0.67979006 0.73841557 1.0779522 0.96626768 0.99012207 1.1601625 1.015825 0.94281447 0.86369756 0.7572688 0.57539129 0.6607389 0.88335663 0.57993723 0.54936763 0.75627311 0.52775792 0.50516629 0.62776202 0.64241568 0.61129848 0.51007263 0.44491603 0.5677236 0.41104608 0.35670535 0.48312761 0.37172147 0.40620356 0.16768971 0.32064458 0.36711015 0.44763161 0.84198405
-1.8290148999999998 -1.9819171999999998 -1.877888 -2.0599423 -1.9537648 -1.8248292000000002 -1.9793392 -1.2836669 -1.4264364999999999 -1.4780688999999998 -0.78744939 -0.60358092 -0.24978571 -0.022740876 0.39847713 0.67979006 0.73841557 1.0779522 0.96626768 0.99012207 1.1601625 1.015825 0.94281447 0.86369756 0.7572688 0.57539129 0.6607389 0.88335663 0.57993723 0.54936763 0.75627311 0.52775792 0.50516629 0.62776202 0.64241568 0.61129848 0.51007263 0.44491603 0.5677236 0.41104608 0.35670535 0.48312761 0.37172147 0.40620356 0.16768971 0.32064458 0.36711015 0.44763161 0.84198405 0.89723218
-1.9819171999999998 -1.877888 -2.0599423 -1.9537648 -1.8248292000000002 -1.9793392 -1.2836669 -1.4264364999999999 -1.4780688999999998 -0.78744939 -0.60358092 -0.24978571 -0.022740876 0.39847713 0.67979006 0.73841557 1.0779522 0.96626768 0.99012207 1.1601625 1.015825 0.94281447 0.86369756 0.7572688 0.57539129 0.6607389 0.88335663 0.57993723 0.54936763 0.75627311 0.52775792 0.50516629 0.62776202 0.64241568 0.61129848 0.51007263 0.44491603 0.5677236 0.41104608 0.35670535 0.48312761 0.37172147 0.40620356 0.16768971 0.32064458 0.36711015 0.44763161 0.84198405 0.89723218 0.6474705
-1.877888 -2.0599423 -1.9537648 -1.8248292000000002 -1.9793392 -1.2836669 -1.4264364999999999 -1.4780688999999998 -0.78744939 -0.60358092 -0.24978571 -0.022740876 0.39847713 0.67979006 0.73841557 1.0779522 0.96626768 0.99012207 1.1601625 1.015825 0.94281447 0.86369756 0.7572688 0.57539129 0.6607389 0.88335663 0.57993723 0.54936763 0.75627311 0.52775792 0.50516629 0.62776202 0.64241568 0.61129848 0.51007263 0.44491603 0.5677236 0.41104608 0.35670535 0.48312761 0.37172147 0.40620356 0.16768971 0.32064458 0.36711015 0.44763161 0.84198405 0.89723218 0.6474705 0.47428668
-2.0599423 -1.9537648 -1.8248292000000002 -1.9793392 -1.2836669 -1.4264364999999999 -1.4780688999999998 -0.78744939 -0.60358092 -0.24978571 -0.022740876 0.39847713 0.67979006 0.73841557 1.0779522 0.96626768 0.99012207 1.1601625 1.015825 0.94281447 0.86369756 0.7572688 0.57539129 0.6607389 0.88335663 0.57993723 0.54936763 0.75627311 0.52775792 0.50516629 0.62776202 0.64241568 0.61129848 0.51007263 0.44491603 0.5677236 0.41104608 0.35670535 0.48312761 0.37172147 0.40620356 0.16768971 0.32064458 0.36711015 0.44763161 0.84198405 0.89723218 0.6474705 0.47428668 0.33651308
-1.9537648 -1.8248292000000002 -1.9793392 -1.2836669 -1.4264364999999999 -1.4780688999999998 -0.78744939 -0.60358092 -0.24978571 -0.022740876 0.39847713 0.67979006 0.73841557 1.0779522 0.96626768 0.99012207 1.1601625 1.015825 0.94281447 0.86369756 0.7572688 0.57539129 0.6607389 0.88335663 0.57993723 0.54936763 0.75627311 0.52775792 0.50516629 0.62776202 0.64241568 0.61129848 0.51007263 0.44491603 0.5677236 0.41104608 0.35670535 0.48312761 0.37172147 0.40620356 0.16768971 0.32064458 0.36711015 0.44763161 0.84198405 0.89723218 0.6474705 0.47428668 0.33651308 0.28150151
-1.8248292000000002 -1.9793392 -1.2836669 -1.4264364999999999 -1.4780688999999998 -0.78744939 -0.60358092 -0.24978571 -0.022740876 0.39847713 0.67979006 0.73841557 1.0779522 0.96626768 0.99012207 1.1601625 1.015825 0.94281447 0.86369756 0.7572688 0.57539129 0.6607389 0.88335663 0.57993723 0.54936763 0.75627311 0.52775792 0.50516629 0.62776202 0.64241568 0.61129848 0.51007263 0.44491603 0.5677236 0.41104608 0.35670535 0.48312761 0.37172147 0.40620356 0.16768971 0.32064458 0.36711015 0.44763161 0.84198405 0.89723218 0.6474705 0.47428668 0.33651308 0.28150151 0.12320494
-1.9793392 -1.2836669 -1.4264364999999999 -1.4780688999999998 -0.78744939 -0.60358092 -0.24978571 -0.022740876 0.39847713 0.67979006 0.73841557 1.0779522 0.96626768 0.99012207 1.1601625 1.015825 0.94281447 0.86369756 0.7572688 0.57539129 0.6607389 0.88335663 0.57993723 0.54936763 0.75627311 0.52775792 0.50516629 0.62776202 0.64241568 0.61129848 0.51007263 0.44491603 0.5677236 0.41104608 0.35670535 0.48312761 0.37172147 0.40620356 0.16768971 0.32064458 0.36711015 0.44763161 0.84198405 0.89723218 0.6474705 0.47428668 0.33651308 0.28150151 0.12320494 -0.057563631
-1.2836669 -1.4264364999999999 -1.4780688999999998 -0.78744939 -0.60358092 -0.24978571 -0.022740876 0.39847713 0.67979006 0.73841557 1.0779522 0.96626768 0.99012207 1.1601625 1.015825 0.94281447 0.86369756 0.7572688 0.57539129 0.6607389 0.88335663 0.57993723 0.54936763 0.75627311 0.52775792 0.50516629 0.62776202 0.64241568 0.61129848 0.51007263 0.44491603 0.5677236 0.41104608 0.35670535 0.48312761 0.37172147 0.40620356 0.16768971 0.32064458 0.36711015 0.44763161 0.84198405 0.89723218 0.6474705 0.47428668 0.33651308 0.28150151 0.12320494 -0.057563631 0.010401321
-1.4264364999999999 -1.4780688999999998 -0.78744939 -0.60358092 -0.24978571 -0.022740876 0.39847713 0.67979006 0.73841557 1.0779522 0.96626768 0.99012207 1.1601625 1.015825 0.94281447 0.86369756 0.7572688 0.57539129 0.6607389 0.88335663 0.57993723 0.54936763 0.75627311 0.52775792 0.50516629 0.62776202 0.64241568 0.61129848 0.51007263 0.44491603 0.5677236 0.41104608 0.35670535 0.48312761 0.37172147 0.40620356 0.16768971 0.32064458 0.36711015 0.44763161 0.84198405 0.89723218 0.6474705 0.47428668 0.33651308 0.28150151 0.12320494 -0.057563631 0.010401321 -0.017934473
-1.4780688999999998 -0.78744939 -0.60358092 -0.24978571 -0.022740876 0.39847713 0.67979006 0.73841557 1.0779522 0.96626768 0.99012207 1.1601625 1.015825 0.94281447 0.86369756 0.7572688 0.57539129 0.6607389 0.88335663 0.57993723 0.54936763 0.75627311 0.52775792 0.50516629 0.62776202 0.64241568 0.61129848 0.51007263 0.44491603 0.5677236 0.41104608 0.35670535 0.48312761 0.37172147 0.40620356 0.16768971 0.32064458 0.36711015 0.44763161 0.84198405 0.89723218 0.6474705 0.47428668 0.33651308 0.28150151 0.12320494 -0.057563631 0.010401321 -0.017934473 -0.17628534
-0.78744939 -0.60358092 -0.24978571 -0.022740876 0.39847713 0.67979006 0.73841557 1.0779522 0.96626768 0.99012207 1.1601625 1.015825 0.94281447 0.86369756 0.7572688 0.57539129 0.6607389 0.88335663 0.57993723 0.54936763 0.75627311 0.52775792 0.50516629 0.62776202 0.64241568 0.61129848 0.51007263 0.44491603 0.5677236 0.41104608 0.35670535 0.48312761 0.37172147 0.40620356 0.16768971 0.32064458 0.36711015 0.44763161 0.84198405 0.89723218 0.6474705 0.47428668 0.33651308 0.28150151 0.12320494 -0.057563631 0.010401321 -0.017934473 -0.17628534 -0.23377359
-0.60358092 -0.24978571 -0.022740876 0.39847713 0.67979006 0.73841557 1.0779522 0.96626768 0.99012207 1.1601625 1.015825 0.94281447 0.86369756 0.7572688 0.57539129 0.6607389 0.88335663 0.57993723 0.54936763 0.75627311 0.52775792 0.50516629 0.62776202 0.64241568 0.61129848 0.51007263 0.44491603 0.5677236 0.41104608 0.35670535 0.48312761 0.37172147 0.40620356 0.16768971 0.32064458 0.36711015 0.44763161 0.84198405 0.89723218 0.6474705 0.47428668 0.33651308 0.28150151 0.12320494 -0.057563631 0.010401321 -0.017934473 -0.17628534 -0.23377359 0.29682625
-0.24978571 -0.022740876 0.39847713 0.67979006 0.73841557 1.0779522 0.96626768 0.99012207 1.1601625 1.015825 0.94281447 0.86369756 0.7572688 0.57539129 0.6607389 0.88335663 0.57993723 0.54936763 0.75627311 0.52775792 0.50516629 0.62776202 0.64241568 0.61129848 0.51007263 0.44491603 0.5677236 0.41104608 0.35670535 0.48312761 0.37172147 0.40620356 0.16768971 0.32064458 0.36711015 0.44763161 0.84198405 0.89723218 0.6474705 0.47428668 0.33651308 0.28150151 0.12320494 -0.057563631 0.010401321 -0.017934473 -0.17628534 -0.23377359 0.29682625 -0.10895391
-0.022740876 0.39847713 0.67979006 0.73841557 1.0779522 0.96626768 0.99012207 1.1601625 1.015825 0.94281447 0.86369756 0.7572688 0.57539129 0.6607389 0.88335663 0.57993723 0.54936763 0.75627311 0.52775792 0.50516629 0.62776202 0.64241568 0.61129848 0.51007263 0.44491603 0.5677236 0.41104608 0.35670535 0.48312761 0.37172147 0.40620356 0.16768971 0.32064458 0.36711015 0.44763161 0.84198405 0.89723218 0.6474705 0.47428668 0.33651308 0.28150151 0.12320494 -0.057563631 0.010401321 -0.017934473 -0.17628534 -0.23377359 0.29682625 -0.10895391 -0.16938363
0.39847713 0.67979006 0.73841557 1.0779522 0.96626768 0.99012207 1.1601625 1.015825 0.94281447 0.86369756 0.7572688 0.57539129 0.6607389 0.88335663 0.57993723 0.54936763 0.75627311 0.52775792 0.50516629 0.62776202 0.64241568 0.61129848 0.51007263 0.44491603 0.5677236 0.41104608 0.35670535 0.48312761 0.37172147 0.40620356 0.16768971 0.32064458 0.36711015 0.44763161 0.84198405 0.89723218 0.6474705 0.47428668 0.33651308 0.28150151 0.12320494 -0.057563631 0.010401321 -0.017934473 -0.17628534 -0.23377359 0.29682625 -0.10895391 -0.16938363 -0.055744418
0.67979006 0.73841557 1.0779522 0.96626768 0.99012207 1.1601625 1.015825 0.94281447 0.86369756 0.7572688 0.57539129 0.6607389 0.88335663 0.57993723 0.54936763 0.75627311 0.52775792 0.50516629 0.62776202 0.64241568 0.61129848 0.51007263 0.44491603 0.5677236 0.41104608 0.35670535 0.48312761 0.37172147 0.40620356 0.16768971 0.32064458 0.36711015 0.44763161 0.84198405 0.89723218 0.6474705 0.47428668 0.33651308 0.28150151 0.12320494 -0.057563631 0.010401321 -0.017934473 -0.17628534 -0.23377359 0.29682625 -0.10895391 -0.16938363 -0.055744418 -0.10516754
0.73841557 1.0779522 0.96626768 0.99012207 1.1601625 1.015825 0.94281447 0.86369756 0.7572688 0.57539129 0.6607389 0.88335663 0.57993723 0.54936763 0.75627311 0.52775792 0.50516629 0.62776202 0.64241568 0.61129848 0.51007263 0.44491603 0.5677236 0.41104608 0.35670535 0.48312761 0.37172147 0.40620356 0.16768971 0.32064458 0.36711015 0.44763161 0.84198405 0.89723218 0.6474705 0.47428668 0.33651308 0.28150151 0.12320494 -0.057563631 0.010401321 -0.017934473 -0.17628534 -0.23377359 0.29682625 -0.10895391 -0.16938363 -0.055744418 -0.10516754 0.018623063000000002
1.0779522 0.96626768 0.99012207 1.1601625 1.015825 0.94281447 0.86369756 0.7572688 0.57539129 0.6607389 0.88335663 0.57993723 0.54936763 0.75627311 0.52775792 0.50516629 0.62776202 0.64241568 0.61129848 0.51007263 0.44491603 0.5677236 0.41104608 0.35670535 0.48312761 0.37172147 0.40620356 0.16768971 0.32064458 0.36711015 0.44763161 0.84198405 0.89723218 0.6474705 0.47428668 0.33651308 0.28150151 0.12320494 -0.057563631 0.010401321 -0.017934473 -0.17628534 -0.23377359 0.29682625 -0.10895391 -0.16938363 -0.055744418 -0.10516754 0.018623063000000002 -0.16231095
0.96626768 0.99012207 1.1601625 1.015825 0.94281447 0.86369756 0.7572688 0.57539129 0.6607389 0.88335663 0.57993723 0.54936763 0.75627311 0.52775792 0.50516629 0.62776202 0.64241568 0.61129848 0.51007263 0.44491603 0.5677236 0.41104608 0.35670535 0.48312761 0.37172147 0.40620356 0.16768971 0.32064458 0.36711015 0.44763161 0.84198405 0.89723218 0.6474705 0.47428668 0.33651308 0.28150151 0.12320494 -0.057563631 0.010401321 -0.017934473 -0.17628534 -0.23377359 0.29682625 -0.10895391 -0.16938363 -0.055744418 -0.10516754 0.018623063000000002 -0.16231095 -0.089595219
0.99012207 1.1601625 1.015825 0.94281447 0.86369756 0.7572688 0.57539129 0.6607389 0.88335663 0.57993723 0.54936763 0.75627311 0.52775792 0.50516629 0.62776202 0.64241568 0.61129848 0.51007263 0.44491603 0.5677236 0.41104608 0.35670535 0.48312761 0.37172147 0.40620356 0.16768971 0.32064458 0.36711015 0.44763161 0.84198405 0.89723218 0.6474705 0.47428668 0.33651308 0.28150151 0.12320494 -0.057563631 0.010401321 -0.017934473 -0.17628534 -0.23377359 0.29682625 -0.10895391 -0.16938363 -0.055744418 -0.10516754 0.018623063000000002 -0.16231095 -0.089595219 -0.0719688
1.1601625 1.015825 0.94281447 0.86369756 0.7572688 0.57539129 0.6607389 0.88335663 0.57993723 0.54936763 0.75627311 0.52775792 0.50516629 0.62776202 0.64241568 0.61129848 0.51007263 0.44491603 0.5677236 0.41104608 0.35670535 0.48312761 0.37172147 0.40620356 0.16768971 0.32064458 0.36711015 0.44763161 0.84198405 0.89723218 0.6474705 0.47428668 0.33651308 0.28150151 0.12320494 -0.057563631 0.010401321 -0.017934473 -0.17628534 -0.23377359 0.29682625 -0.10895391 -0.16938363 -0.055744418 -0.10516754 0.018623063000000002 -0.16231095 -0.089595219 -0.0719688 0.038689976
1.015825 0.94281447 0.86369756 0.7572688 0.57539129 0.6607389 0.88335663 0.57993723 0.54936763 0.75627311 0.52775792 0.50516629 0.62776202 0.64241568 0.61129848 0.51007263 0.44491603 0.5677236 0.41104608 0.35670535 0.48312761 0.37172147 0.40620356 0.16768971 0.32064458 0.36711015 0.44763161 0.84198405 0.89723218 0.6474705 0.47428668 0.33651308 0.28150151 0.12320494 -0.057563631 0.010401321 -0.017934473 -0.17628534 -0.23377359 0.29682625 -0.10895391 -0.16938363 -0.055744418 -0.10516754 0.018623063000000002 -0.16231095 -0.089595219 -0.0719688 0.038689976 0.076532621
