0.70370874 2.1329849 3.5596178999999997 3.3633562999999995 2.6401432000000002 1.260467 -0.49060654 -0.090413285 0.53944717 0.25431671 0.34155574 0.34724464 0.2807386 -0.058395009000000005 -0.69286534 -0.89370968 -0.50978985 -0.85662103 -0.88452148 -0.93822468 -1.2568693000000002 -1.065784 -1.2760981000000002 -1.2851325 -1.4805175 -1.6128873 -1.4955171999999999 -2.0528977 -1.6416944 -1.738472 -1.8948756999999998 -1.7296247999999999 -2.1026516 -1.3989201 -1.116141 -1.3825585 -1.0009164000000002 -0.45116437 -0.11216043 -0.12544132 0.38430511 0.52268112 0.64022824 0.83679803 0.91334864 0.97374424 0.85505655 0.9168315999999999 0.78953567 0.81599558
2.1329849 3.5596178999999997 3.3633562999999995 2.6401432000000002 1.260467 -0.49060654 -0.090413285 0.53944717 0.25431671 0.34155574 0.34724464 0.2807386 -0.058395009000000005 -0.69286534 -0.89370968 -0.50978985 -0.85662103 -0.88452148 -0.93822468 -1.2568693000000002 -1.065784 -1.2760981000000002 -1.2851325 -1.4805175 -1.6128873 -1.4955171999999999 -2.0528977 -1.6416944 -1.738472 -1.8948756999999998 -1.7296247999999999 -2.1026516 -1.3989201 -1.116141 -1.3825585 -1.0009164000000002 -0.45116437 -0.11216043 -0.12544132 0.38430511 0.52268112 0.64022824 0.83679803 0.91334864 0.97374424 0.85505655 0.9168315999999999 0.78953567 0.81599558 0.76457052
3.5596178999999997 3.3633562999999995 2.6401432000000002 1.260467 -0.49060654 -0.090413285 0.53944717 0.25431671 0.34155574 0.34724464 0.2807386 -0.058395009000000005 -0.69286534 -0.89370968 -0.50978985 -0.85662103 -0.88452148 -0.93822468 -1.2568693000000002 -1.065784 -1.2760981000000002 -1.2851325 -1.4805175 -1.6128873 -1.4955171999999999 -2.0528977 -1.6416944 -1.738472 -1.8948756999999998 -1.7296247999999999 -2.1026516 -1.3989201 -1.116141 -1.3825585 -1.0009164000000002 -0.45116437 -0.11216043 -0.12544132 0.38430511 0.52268112 0.64022824 0.83679803 0.91334864 0.97374424 0.85505655 0.9168315999999999 0.78953567 0.81599558 0.76457052 0.49983047
3.3633562999999995 2.6401432000000002 1.260467 -0.49060654 -0.090413285 0.53944717 0.25431671 0.34155574 0.34724464 0.2807386 -0.058395009000000005 -0.69286534 -0.89370968 -0.50978985 -0.85662103 -0.88452148 -0.93822468 -1.2568693000000002 -1.065784 -1.2760981000000002 -1.2851325 -1.4805175 -1.6128873 -1.4955171999999999 -2.0528977 -1.6416944 -1.738472 -1.8948756999999998 -1.7296247999999999 -2.1026516 -1.3989201 -1.116141 -1.3825585 -1.0009164000000002 -0.45116437 -0.11216043 -0.12544132 0.38430511 0.52268112 0.64022824 0.83679803 0.91334864 0.97374424 0.85505655 0.9168315999999999 0.78953567 0.81599558 0.76457052 0.49983047 0.65676993
2.6401432000000002 1.260467 -0.49060654 -0.090413285 0.53944717 0.25431671 0.34155574 0.34724464 0.2807386 -0.058395009000000005 -0.69286534 -0.89370968 -0.50978985 -0.85662103 -0.88452148 -0.93822468 -1.2568693000000002 -1.065784 -1.2760981000000002 -1.2851325 -1.4805175 -1.6128873 -1.4955171999999999 -2.0528977 -1.6416944 -1.738472 -1.8948756999999998 -1.7296247999999999 -2.1026516 -1.3989201 -1.116141 -1.3825585 -1.0009164000000002 -0.45116437 -0.11216043 -0.12544132 0.38430511 0.52268112 0.64022824 0.83679803 0.91334864 0.97374424 0.85505655 0.9168315999999999 0.78953567 0.81599558 0.76457052 0.49983047 0.65676993 0.57289019
1.260467 -0.49060654 -0.090413285 0.53944717 0.25431671 0.34155574 0.34724464 0.2807386 -0.058395009000000005 -0.69286534 -0.89370968 -0.50978985 -0.85662103 -0.88452148 -0.93822468 -1.2568693000000002 -1.065784 -1.2760981000000002 -1.2851325 -1.4805175 -1.6128873 -1.4955171999999999 -2.0528977 -1.6416944 -1.738472 -1.8948756999999998 -1.7296247999999999 -2.1026516 -1.3989201 -1.116141 -1.3825585 -1.0009164000000002 -0.45116437 -0.11216043 -0.12544132 0.38430511 0.52268112 0.64022824 0.83679803 0.91334864 0.97374424 0.85505655 0.9168315999999999 0.78953567 0.81599558 0.76457052 0.49983047 0.65676993 0.57289019 0.61484244
-0.49060654 -0.090413285 0.53944717 0.25431671 0.34155574 0.34724464 0.2807386 -0.058395009000000005 -0.69286534 -0.89370968 -0.50978985 -0.85662103 -0.88452148 -0.93822468 -1.2568693000000002 -1.065784 -1.2760981000000002 -1.2851325 -1.4805175 -1.6128873 -1.4955171999999999 -2.0528977 -1.6416944 -1.738472 -1.8948756999999998 -1.7296247999999999 -2.1026516 -1.3989201 -1.116141 -1.3825585 -1.0009164000000002 -0.45116437 -0.11216043 -0.12544132 0.38430511 0.52268112 0.64022824 0.83679803 0.91334864 0.97374424 0.85505655 0.9168315999999999 0.78953567 0.81599558 0.76457052 0.49983047 0.65676993 0.57289019 0.61484244 0.54089615
-0.090413285 0.53944717 0.25431671 0.34155574 0.34724464 0.2807386 -0.058395009000000005 -0.69286534 -0.89370968 -0.50978985 -0.85662103 -0.88452148 -0.93822468 -1.2568693000000002 -1.065784 -1.2760981000000002 -1.2851325 -1.4805175 -1.6128873 -1.4955171999999999 -2.0528977 -1.6416944 -1.738472 -1.8948756999999998 -1.7296247999999999 -2.1026516 -1.3989201 -1.116141 -1.3825585 -1.0009164000000002 -0.45116437 -0.11216043 -0.12544132 0.38430511 0.52268112 0.64022824 0.83679803 0.91334864 0.97374424 0.85505655 0.9168315999999999 0.78953567 0.81599558 0.76457052 0.49983047 0.65676993 0.57289019 0.61484244 0.54089615 0.39077625
0.53944717 0.25431671 0.34155574 0.34724464 0.2807386 -0.058395009000000005 -0.69286534 -0.89370968 -0.50978985 -0.85662103 -0.88452148 -0.93822468 -1.2568693000000002 -1.065784 -1.2760981000000002 -1.2851325 -1.4805175 -1.6128873 -1.4955171999999999 -2.0528977 -1.6416944 -1.738472 -1.8948756999999998 -1.7296247999999999 -2.1026516 -1.3989201 -1.116141 -1.3825585 -1.0009164000000002 -0.45116437 -0.11216043 -0.12544132 0.38430511 0.52268112 0.64022824 0.83679803 0.91334864 0.97374424 0.85505655 0.9168315999999999 0.78953567 0.81599558 0.76457052 0.49983047 0.65676993 0.57289019 0.61484244 0.54089615 0.39077625 0.47798147
0.25431671 0.34155574 0.34724464 0.2807386 -0.058395009000000005 -0.69286534 -0.89370968 -0.50978985 -0.85662103 -0.88452148 -0.93822468 -1.2568693000000002 -1.065784 -1.2760981000000002 -1.2851325 -1.4805175 -1.6128873 -1.4955171999999999 -2.0528977 -1.6416944 -1.738472 -1.8948756999999998 -1.7296247999999999 -2.1026516 -1.3989201 -1.116141 -1.3825585 -1.0009164000000002 -0.45116437 -0.11216043 -0.12544132 0.38430511 0.52268112 0.64022824 0.83679803 0.91334864 0.97374424 0.85505655 0.9168315999999999 0.78953567 0.81599558 0.76457052 0.49983047 0.65676993 0.57289019 0.61484244 0.54089615 0.39077625 0.47798147 0.37671973
0.34155574 0.34724464 0.2807386 -0.058395009000000005 -0.69286534 -0.89370968 -0.50978985 -0.85662103 -0.88452148 -0.93822468 -1.2568693000000002 -1.065784 -1.2760981000000002 -1.2851325 -1.4805175 -1.6128873 -1.4955171999999999 -2.0528977 -1.6416944 -1.738472 -1.8948756999999998 -1.7296247999999999 -2.1026516 -1.3989201 -1.116141 -1.3825585 -1.0009164000000002 -0.45116437 -0.11216043 -0.12544132 0.38430511 0.52268112 0.64022824 0.83679803 0.91334864 0.97374424 0.85505655 0.9168315999999999 0.78953567 0.81599558 0.76457052 0.49983047 0.65676993 0.57289019 0.61484244 0.54089615 0.39077625 0.47798147 0.37671973 0.56613391
0.34724464 0.2807386 -0.058395009000000005 -0.69286534 -0.89370968 -0.50978985 -0.85662103 -0.88452148 -0.93822468 -1.2568693000000002 -1.065784 -1.2760981000000002 -1.2851325 -1.4805175 -1.6128873 -1.4955171999999999 -2.0528977 -1.6416944 -1.738472 -1.8948756999999998 -1.7296247999999999 -2.1026516 -1.3989201 -1.116141 -1.3825585 -1.0009164000000002 -0.45116437 -0.11216043 -0.12544132 0.38430511 0.52268112 0.64022824 0.83679803 0.91334864 0.97374424 0.85505655 0.9168315999999999 0.78953567 0.81599558 0.76457052 0.49983047 0.65676993 0.57289019 0.61484244 0.54089615 0.39077625 0.47798147 0.37671973 0.56613391 0.32402600000000004
0.2807386 -0.058395009000000005 -0.69286534 -0.89370968 -0.50978985 -0.85662103 -0.88452148 -0.93822468 -1.2568693000000002 -1.065784 -1.2760981000000002 -1.2851325 -1.4805175 -1.6128873 -1.4955171999999999 -2.0528977 -1.6416944 -1.738472 -1.8948756999999998 -1.7296247999999999 -2.1026516 -1.3989201 -1.116141 -1.3825585 -1.0009164000000002 -0.45116437 -0.11216043 -0.12544132 0.38430511 0.52268112 0.64022824 0.83679803 0.91334864 0.97374424 0.85505655 0.9168315999999999 0.78953567 0.81599558 0.76457052 0.49983047 0.65676993 0.57289019 0.61484244 0.54089615 0.39077625 0.47798147 0.37671973 0.56613391 0.32402600000000004 0.24478462
-0.058395009000000005 -0.69286534 -0.89370968 -0.50978985 -0.85662103 -0.88452148 -0.93822468 -1.2568693000000002 -1.065784 -1.2760981000000002 -1.2851325 -1.4805175 -1.6128873 -1.4955171999999999 -2.0528977 -1.6416944 -1.738472 -1.8948756999999998 -1.7296247999999999 -2.1026516 -1.3989201 -1.116141 -1.3825585 -1.0009164000000002 -0.45116437 -0.11216043 -0.12544132 0.38430511 0.52268112 0.64022824 0.83679803 0.91334864 0.97374424 0.85505655 0.9168315999999999 0.78953567 0.81599558 0.76457052 0.49983047 0.65676993 0.57289019 0.61484244 0.54089615 0.39077625 0.47798147 0.37671973 0.56613391 0.32402600000000004 0.24478462 0.43970075
-0.69286534 -0.89370968 -0.50978985 -0.85662103 -0.88452148 -0.93822468 -1.2568693000000002 -1.065784 -1.2760981000000002 -1.2851325 -1.4805175 -1.6128873 -1.4955171999999999 -2.0528977 -1.6416944 -1.738472 -1.8948756999999998 -1.7296247999999999 -2.1026516 -1.3989201 -1.116141 -1.3825585 -1.0009164000000002 -0.45116437 -0.11216043 -0.12544132 0.38430511 0.52268112 0.64022824 0.83679803 0.91334864 0.97374424 0.85505655 0.9168315999999999 0.78953567 0.81599558 0.76457052 0.49983047 0.65676993 0.57289019 0.61484244 0.54089615 0.39077625 0.47798147 0.37671973 0.56613391 0.32402600000000004 0.24478462 0.43970075 0.23777299
-0.89370968 -0.50978985 -0.85662103 -0.88452148 -0.93822468 -1.2568693000000002 -1.065784 -1.2760981000000002 -1.2851325 -1.4805175 -1.6128873 -1.4955171999999999 -2.0528977 -1.6416944 -1.738472 -1.8948756999999998 -1.7296247999999999 -2.1026516 -1.3989201 -1.116141 -1.3825585 -1.0009164000000002 -0.45116437 -0.11216043 -0.12544132 0.38430511 0.52268112 0.64022824 0.83679803 0.91334864 0.97374424 0.85505655 0.9168315999999999 0.78953567 0.81599558 0.76457052 0.49983047 0.65676993 0.57289019 0.61484244 0.54089615 0.39077625 0.47798147 0.37671973 0.56613391 0.32402600000000004 0.24478462 0.43970075 0.23777299 0.25566436
-0.50978985 -0.85662103 -0.88452148 -0.93822468 -1.2568693000000002 -1.065784 -1.2760981000000002 -1.2851325 -1.4805175 -1.6128873 -1.4955171999999999 -2.0528977 -1.6416944 -1.738472 -1.8948756999999998 -1.7296247999999999 -2.1026516 -1.3989201 -1.116141 -1.3825585 -1.0009164000000002 -0.45116437 -0.11216043 -0.12544132 0.38430511 0.52268112 0.64022824 0.83679803 0.91334864 0.97374424 0.85505655 0.9168315999999999 0.78953567 0.81599558 0.76457052 0.49983047 0.65676993 0.57289019 0.61484244 0.54089615 0.39077625 0.47798147 0.37671973 0.56613391 0.32402600000000004 0.24478462 0.43970075 0.23777299 0.25566436 0.2847559
-0.85662103 -0.88452148 -0.93822468 -1.2568693000000002 -1.065784 -1.2760981000000002 -1.2851325 -1.4805175 -1.6128873 -1.4955171999999999 -2.0528977 -1.6416944 -1.738472 -1.8948756999999998 -1.7296247999999999 -2.1026516 -1.3989201 -1.116141 -1.3825585 -1.0009164000000002 -0.45116437 -0.11216043 -0.12544132 0.38430511 0.52268112 0.64022824 0.83679803 0.91334864 0.97374424 0.85505655 0.9168315999999999 0.78953567 0.81599558 0.76457052 0.49983047 0.65676993 0.57289019 0.61484244 0.54089615 0.39077625 0.47798147 0.37671973 0.56613391 0.32402600000000004 0.24478462 0.43970075 0.23777299 0.25566436 0.2847559 0.34540402
-0.88452148 -0.93822468 -1.2568693000000002 -1.065784 -1.2760981000000002 -1.2851325 -1.4805175 -1.6128873 -1.4955171999999999 -2.0528977 -1.6416944 -1.738472 -1.8948756999999998 -1.7296247999999999 -2.1026516 -1.3989201 -1.116141 -1.3825585 -1.0009164000000002 -0.45116437 -0.11216043 -0.12544132 0.38430511 0.52268112 0.64022824 0.83679803 0.91334864 0.97374424 0.85505655 0.9168315999999999 0.78953567 0.81599558 0.76457052 0.49983047 0.65676993 0.57289019 0.61484244 0.54089615 0.39077625 0.47798147 0.37671973 0.56613391 0.32402600000000004 0.24478462 0.43970075 0.23777299 0.25566436 0.2847559 0.34540402 0.15379756
-0.93822468 -1.2568693000000002 -1.065784 -1.2760981000000002 -1.2851325 -1.4805175 -1.6128873 -1.4955171999999999 -2.0528977 -1.6416944 -1.738472 -1.8948756999999998 -1.7296247999999999 -2.1026516 -1.3989201 -1.116141 -1.3825585 -1.0009164000000002 -0.45116437 -0.11216043 -0.12544132 0.38430511 0.52268112 0.64022824 0.83679803 0.91334864 0.97374424 0.85505655 0.9168315999999999 0.78953567 0.81599558 0.76457052 0.49983047 0.65676993 0.57289019 0.61484244 0.54089615 0.39077625 0.47798147 0.37671973 0.56613391 0.32402600000000004 0.24478462 0.43970075 0.23777299 0.25566436 0.2847559 0.34540402 0.15379756 -0.078810462
-1.2568693000000002 -1.065784 -1.2760981000000002 -1.2851325 -1.4805175 -1.6128873 -1.4955171999999999 -2.0528977 -1.6416944 -1.738472 -1.8948756999999998 -1.7296247999999999 -2.1026516 -1.3989201 -1.116141 -1.3825585 -1.0009164000000002 -0.45116437 -0.11216043 -0.12544132 0.38430511 0.52268112 0.64022824 0.83679803 0.91334864 0.97374424 0.85505655 0.9168315999999999 0.78953567 0.81599558 0.76457052 0.49983047 0.65676993 0.57289019 0.61484244 0.54089615 0.39077625 0.47798147 0.37671973 0.56613391 0.32402600000000004 0.24478462 0.43970075 0.23777299 0.25566436 0.2847559 0.34540402 0.15379756 -0.078810462 0.22459146
-1.065784 -1.2760981000000002 -1.2851325 -1.4805175 -1.6128873 -1.4955171999999999 -2.0528977 -1.6416944 -1.738472 -1.8948756999999998 -1.7296247999999999 -2.1026516 -1.3989201 -1.116141 -1.3825585 -1.0009164000000002 -0.45116437 -0.11216043 -0.12544132 0.38430511 0.52268112 0.64022824 0.83679803 0.91334864 0.97374424 0.85505655 0.9168315999999999 0.78953567 0.81599558 0.76457052 0.49983047 0.65676993 0.57289019 0.61484244 0.54089615 0.39077625 0.47798147 0.37671973 0.56613391 0.32402600000000004 0.24478462 0.43970075 0.23777299 0.25566436 0.2847559 0.34540402 0.15379756 -0.078810462 0.22459146 0.29375224
-1.2760981000000002 -1.2851325 -1.4805175 -1.6128873 -1.4955171999999999 -2.0528977 -1.6416944 -1.738472 -1.8948756999999998 -1.7296247999999999 -2.1026516 -1.3989201 -1.116141 -1.3825585 -1.0009164000000002 -0.45116437 -0.11216043 -0.12544132 0.38430511 0.52268112 0.64022824 0.83679803 0.91334864 0.97374424 0.85505655 0.9168315999999999 0.78953567 0.81599558 0.76457052 0.49983047 0.65676993 0.57289019 0.61484244 0.54089615 0.39077625 0.47798147 0.37671973 0.56613391 0.32402600000000004 0.24478462 0.43970075 0.23777299 0.25566436 0.2847559 0.34540402 0.15379756 -0.078810462 0.22459146 0.29375224 -0.082837109
-1.2851325 -1.4805175 -1.6128873 -1.4955171999999999 -2.0528977 -1.6416944 -1.738472 -1.8948756999999998 -1.7296247999999999 -2.1026516 -1.3989201 -1.116141 -1.3825585 -1.0009164000000002 -0.45116437 -0.11216043 -0.12544132 0.38430511 0.52268112 0.64022824 0.83679803 0.91334864 0.97374424 0.85505655 0.9168315999999999 0.78953567 0.81599558 0.76457052 0.49983047 0.65676993 0.57289019 0.61484244 0.54089615 0.39077625 0.47798147 0.37671973 0.56613391 0.32402600000000004 0.24478462 0.43970075 0.23777299 0.25566436 0.2847559 0.34540402 0.15379756 -0.078810462 0.22459146 0.29375224 -0.082837109 0.059070814000000006
-1.4805175 -1.6128873 -1.4955171999999999 -2.0528977 -1.6416944 -1.738472 -1.8948756999999998 -1.7296247999999999 -2.1026516 -1.3989201 -1.116141 -1.3825585 -1.0009164000000002 -0.45116437 -0.11216043 -0.12544132 0.38430511 0.52268112 0.64022824 0.83679803 0.91334864 0.97374424 0.85505655 0.9168315999999999 0.78953567 0.81599558 0.76457052 0.49983047 0.65676993 0.57289019 0.61484244 0.54089615 0.39077625 0.47798147 0.37671973 0.56613391 0.32402600000000004 0.24478462 0.43970075 0.23777299 0.25566436 0.2847559 0.34540402 0.15379756 -0.078810462 0.22459146 0.29375224 -0.082837109 0.059070814000000006 0.37341512
-1.6128873 -1.4955171999999999 -2.0528977 -1.6416944 -1.738472 -1.8948756999999998 -1.7296247999999999 -2.1026516 -1.3989201 -1.116141 -1.3825585 -1.0009164000000002 -0.45116437 -0.11216043 -0.12544132 0.38430511 0.52268112 0.64022824 0.83679803 0.91334864 0.97374424 0.85505655 0.9168315999999999 0.78953567 0.81599558 0.76457052 0.49983047 0.65676993 0.57289019 0.61484244 0.54089615 0.39077625 0.47798147 0.37671973 0.56613391 0.32402600000000004 0.24478462 0.43970075 0.23777299 0.25566436 0.2847559 0.34540402 0.15379756 -0.078810462 0.22459146 0.29375224 -0.082837109 0.059070814000000006 0.37341512 0.76557009
-1.4955171999999999 -2.0528977 -1.6416944 -1.738472 -1.8948756999999998 -1.7296247999999999 -2.1026516 -1.3989201 -1.116141 -1.3825585 -1.0009164000000002 -0.45116437 -0.11216043 -0.12544132 0.38430511 0.52268112 0.64022824 0.83679803 0.91334864 0.97374424 0.85505655 0.9168315999999999 0.78953567 0.81599558 0.76457052 0.49983047 0.65676993 0.57289019 0.61484244 0.54089615 0.39077625 0.47798147 0.37671973 0.56613391 0.32402600000000004 0.24478462 0.43970075 0.23777299 0.25566436 0.2847559 0.34540402 0.15379756 -0.078810462 0.22459146 0.29375224 -0.082837109 0.059070814000000006 0.37341512 0.76557009 0.42700273
-2.0528977 -1.6416944 -1.738472 -1.8948756999999998 -1.7296247999999999 -2.1026516 -1.3989201 -1.116141 -1.3825585 -1.0009164000000002 -0.45116437 -0.11216043 -0.12544132 0.38430511 0.52268112 0.64022824 0.83679803 0.91334864 0.97374424 0.85505655 0.9168315999999999 0.78953567 0.81599558 0.76457052 0.49983047 0.65676993 0.57289019 0.61484244 0.54089615 0.39077625 0.47798147 0.37671973 0.56613391 0.32402600000000004 0.24478462 0.43970075 0.23777299 0.25566436 0.2847559 0.34540402 0.15379756 -0.078810462 0.22459146 0.29375224 -0.082837109 0.059070814000000006 0.37341512 0.76557009 0.42700273 0.52756719
-1.6416944 -1.738472 -1.8948756999999998 -1.7296247999999999 -2.1026516 -1.3989201 -1.116141 -1.3825585 -1.0009164000000002 -0.45116437 -0.11216043 -0.12544132 0.38430511 0.52268112 0.64022824 0.83679803 0.91334864 0.97374424 0.85505655 0.9168315999999999 0.78953567 0.81599558 0.76457052 0.49983047 0.65676993 0.57289019 0.61484244 0.54089615 0.39077625 0.47798147 0.37671973 0.56613391 0.32402600000000004 0.24478462 0.43970075 0.23777299 0.25566436 0.2847559 0.34540402 0.15379756 -0.078810462 0.22459146 0.29375224 -0.082837109 0.059070814000000006 0.37341512 0.76557009 0.42700273 0.52756719 0.50578253
-1.738472 -1.8948756999999998 -1.7296247999999999 -2.1026516 -1.3989201 -1.116141 -1.3825585 -1.0009164000000002 -0.45116437 -0.11216043 -0.12544132 0.38430511 0.52268112 0.64022824 0.83679803 0.91334864 0.97374424 0.85505655 0.9168315999999999 0.78953567 0.81599558 0.76457052 0.49983047 0.65676993 0.57289019 0.61484244 0.54089615 0.39077625 0.47798147 0.37671973 0.56613391 0.32402600000000004 0.24478462 0.43970075 0.23777299 0.25566436 0.2847559 0.34540402 0.15379756 -0.078810462 0.22459146 0.29375224 -0.082837109 0.059070814000000006 0.37341512 0.76557009 0.42700273 0.52756719 0.50578253 0.13154282
-1.8948756999999998 -1.7296247999999999 -2.1026516 -1.3989201 -1.116141 -1.3825585 -1.0009164000000002 -0.45116437 -0.11216043 -0.12544132 0.38430511 0.52268112 0.64022824 0.83679803 0.91334864 0.97374424 0.85505655 0.9168315999999999 0.78953567 0.81599558 0.76457052 0.49983047 0.65676993 0.57289019 0.61484244 0.54089615 0.39077625 0.47798147 0.37671973 0.56613391 0.32402600000000004 0.24478462 0.43970075 0.23777299 0.25566436 0.2847559 0.34540402 0.15379756 -0.078810462 0.22459146 0.29375224 -0.082837109 0.059070814000000006 0.37341512 0.76557009 0.42700273 0.52756719 0.50578253 0.13154282 0.12950621
-1.7296247999999999 -2.1026516 -1.3989201 -1.116141 -1.3825585 -1.0009164000000002 -0.45116437 -0.11216043 -0.12544132 0.38430511 0.52268112 0.64022824 0.83679803 0.91334864 0.97374424 0.85505655 0.9168315999999999 0.78953567 0.81599558 0.76457052 0.49983047 0.65676993 0.57289019 0.61484244 0.54089615 0.39077625 0.47798147 0.37671973 0.56613391 0.32402600000000004 0.24478462 0.43970075 0.23777299 0.25566436 0.2847559 0.34540402 0.15379756 -0.078810462 0.22459146 0.29375224 -0.082837109 0.059070814000000006 0.37341512 0.76557009 0.42700273 0.52756719 0.50578253 0.13154282 0.12950621 -0.15099513
-2.1026516 -1.3989201 -1.116141 -1.3825585 -1.0009164000000002 -0.45116437 -0.11216043 -0.12544132 0.38430511 0.52268112 0.64022824 0.83679803 0.91334864 0.97374424 0.85505655 0.9168315999999999 0.78953567 0.81599558 0.76457052 0.49983047 0.65676993 0.57289019 0.61484244 0.54089615 0.39077625 0.47798147 0.37671973 0.56613391 0.32402600000000004 0.24478462 0.43970075 0.23777299 0.25566436 0.2847559 0.34540402 0.15379756 -0.078810462 0.22459146 0.29375224 -0.082837109 0.059070814000000006 0.37341512 0.76557009 0.42700273 0.52756719 0.50578253 0.13154282 0.12950621 -0.15099513 0.12673297
-1.3989201 -1.116141 -1.3825585 -1.0009164000000002 -0.45116437 -0.11216043 -0.12544132 0.38430511 0.52268112 0.64022824 0.83679803 0.91334864 0.97374424 0.85505655 0.9168315999999999 0.78953567 0.81599558 0.76457052 0.49983047 0.65676993 0.57289019 0.61484244 0.54089615 0.39077625 0.47798147 0.37671973 0.56613391 0.32402600000000004 0.24478462 0.43970075 0.23777299 0.25566436 0.2847559 0.34540402 0.15379756 -0.078810462 0.22459146 0.29375224 -0.082837109 0.059070814000000006 0.37341512 0.76557009 0.42700273 0.52756719 0.50578253 0.13154282 0.12950621 -0.15099513 0.12673297 -0.23428292
-1.116141 -1.3825585 -1.0009164000000002 -0.45116437 -0.11216043 -0.12544132 0.38430511 0.52268112 0.64022824 0.83679803 0.91334864 0.97374424 0.85505655 0.9168315999999999 0.78953567 0.81599558 0.76457052 0.49983047 0.65676993 0.57289019 0.61484244 0.54089615 0.39077625 0.47798147 0.37671973 0.56613391 0.32402600000000004 0.24478462 0.43970075 0.23777299 0.25566436 0.2847559 0.34540402 0.15379756 -0.078810462 0.22459146 0.29375224 -0.082837109 0.059070814000000006 0.37341512 0.76557009 0.42700273 0.52756719 0.50578253 0.13154282 0.12950621 -0.15099513 0.12673297 -0.23428292 -0.29217644
-1.3825585 -1.0009164000000002 -0.45116437 -0.11216043 -0.12544132 0.38430511 0.52268112 0.64022824 0.83679803 0.91334864 0.97374424 0.85505655 0.9168315999999999 0.78953567 0.81599558 0.76457052 0.49983047 0.65676993 0.57289019 0.61484244 0.54089615 0.39077625 0.47798147 0.37671973 0.56613391 0.32402600000000004 0.24478462 0.43970075 0.23777299 0.25566436 0.2847559 0.34540402 0.15379756 -0.078810462 0.22459146 0.29375224 -0.082837109 0.059070814000000006 0.37341512 0.76557009 0.42700273 0.52756719 0.50578253 0.13154282 0.12950621 -0.15099513 0.12673297 -0.23428292 -0.29217644 -0.26470573
-1.0009164000000002 -0.45116437 -0.11216043 -0.12544132 0.38430511 0.52268112 0.64022824 0.83679803 0.91334864 0.97374424 0.85505655 0.9168315999999999 0.78953567 0.81599558 0.76457052 0.49983047 0.65676993 0.57289019 0.61484244 0.54089615 0.39077625 0.47798147 0.37671973 0.56613391 0.32402600000000004 0.24478462 0.43970075 0.23777299 0.25566436 0.2847559 0.34540402 0.15379756 -0.078810462 0.22459146 0.29375224 -0.082837109 0.059070814000000006 0.37341512 0.76557009 0.42700273 0.52756719 0.50578253 0.13154282 0.12950621 -0.15099513 0.12673297 -0.23428292 -0.29217644 -0.26470573 -0.09600617800000001
-0.45116437 -0.11216043 -0.12544132 0.38430511 0.52268112 0.64022824 0.83679803 0.91334864 0.97374424 0.85505655 0.9168315999999999 0.78953567 0.81599558 0.76457052 0.49983047 0.65676993 0.57289019 0.61484244 0.54089615 0.39077625 0.47798147 0.37671973 0.56613391 0.32402600000000004 0.24478462 0.43970075 0.23777299 0.25566436 0.2847559 0.34540402 0.15379756 -0.078810462 0.22459146 0.29375224 -0.082837109 0.059070814000000006 0.37341512 0.76557009 0.42700273 0.52756719 0.50578253 0.13154282 0.12950621 -0.15099513 0.12673297 -0.23428292 -0.29217644 -0.26470573 -0.09600617800000001 -0.184226
-0.11216043 -0.12544132 0.38430511 0.52268112 0.64022824 0.83679803 0.91334864 0.97374424 0.85505655 0.9168315999999999 0.78953567 0.81599558 0.76457052 0.49983047 0.65676993 0.57289019 0.61484244 0.54089615 0.39077625 0.47798147 0.37671973 0.56613391 0.32402600000000004 0.24478462 0.43970075 0.23777299 0.25566436 0.2847559 0.34540402 0.15379756 -0.078810462 0.22459146 0.29375224 -0.082837109 0.059070814000000006 0.37341512 0.76557009 0.42700273 0.52756719 0.50578253 0.13154282 0.12950621 -0.15099513 0.12673297 -0.23428292 -0.29217644 -0.26470573 -0.09600617800000001 -0.184226 -0.19090339
-0.12544132 0.38430511 0.52268112 0.64022824 0.83679803 0.91334864 0.97374424 0.85505655 0.9168315999999999 0.78953567 0.81599558 0.76457052 0.49983047 0.65676993 0.57289019 0.61484244 0.54089615 0.39077625 0.47798147 0.37671973 0.56613391 0.32402600000000004 0.24478462 0.43970075 0.23777299 0.25566436 0.2847559 0.34540402 0.15379756 -0.078810462 0.22459146 0.29375224 -0.082837109 0.059070814000000006 0.37341512 0.76557009 0.42700273 0.52756719 0.50578253 0.13154282 0.12950621 -0.15099513 0.12673297 -0.23428292 -0.29217644 -0.26470573 -0.09600617800000001 -0.184226 -0.19090339 -0.14321956
0.38430511 0.52268112 0.64022824 0.83679803 0.91334864 0.97374424 0.85505655 0.9168315999999999 0.78953567 0.81599558 0.76457052 0.49983047 0.65676993 0.57289019 0.61484244 0.54089615 0.39077625 0.47798147 0.37671973 0.56613391 0.32402600000000004 0.24478462 0.43970075 0.23777299 0.25566436 0.2847559 0.34540402 0.15379756 -0.078810462 0.22459146 0.29375224 -0.082837109 0.059070814000000006 0.37341512 0.76557009 0.42700273 0.52756719 0.50578253 0.13154282 0.12950621 -0.15099513 0.12673297 -0.23428292 -0.29217644 -0.26470573 -0.09600617800000001 -0.184226 -0.19090339 -0.14321956 -0.24367694
0.52268112 0.64022824 0.83679803 0.91334864 0.97374424 0.85505655 0.9168315999999999 0.78953567 0.81599558 0.76457052 0.49983047 0.65676993 0.57289019 0.61484244 0.54089615 0.39077625 0.47798147 0.37671973 0.56613391 0.32402600000000004 0.24478462 0.43970075 0.23777299 0.25566436 0.2847559 0.34540402 0.15379756 -0.078810462 0.22459146 0.29375224 -0.082837109 0.059070814000000006 0.37341512 0.76557009 0.42700273 0.52756719 0.50578253 0.13154282 0.12950621 -0.15099513 0.12673297 -0.23428292 -0.29217644 -0.26470573 -0.09600617800000001 -0.184226 -0.19090339 -0.14321956 -0.24367694 -0.045045495
0.64022824 0.83679803 0.91334864 0.97374424 0.85505655 0.9168315999999999 0.78953567 0.81599558 0.76457052 0.49983047 0.65676993 0.57289019 0.61484244 0.54089615 0.39077625 0.47798147 0.37671973 0.56613391 0.32402600000000004 0.24478462 0.43970075 0.23777299 0.25566436 0.2847559 0.34540402 0.15379756 -0.078810462 0.22459146 0.29375224 -0.082837109 0.059070814000000006 0.37341512 0.76557009 0.42700273 0.52756719 0.50578253 0.13154282 0.12950621 -0.15099513 0.12673297 -0.23428292 -0.29217644 -0.26470573 -0.09600617800000001 -0.184226 -0.19090339 -0.14321956 -0.24367694 -0.045045495 -0.20656957
0.83679803 0.91334864 0.97374424 0.85505655 0.9168315999999999 0.78953567 0.81599558 0.76457052 0.49983047 0.65676993 0.57289019 0.61484244 0.54089615 0.39077625 0.47798147 0.37671973 0.56613391 0.32402600000000004 0.24478462 0.43970075 0.23777299 0.25566436 0.2847559 0.34540402 0.15379756 -0.078810462 0.22459146 0.29375224 -0.082837109 0.059070814000000006 0.37341512 0.76557009 0.42700273 0.52756719 0.50578253 0.13154282 0.12950621 -0.15099513 0.12673297 -0.23428292 -0.29217644 -0.26470573 -0.09600617800000001 -0.184226 -0.19090339 -0.14321956 -0.24367694 -0.045045495 -0.20656957 -0.2147904
0.91334864 0.97374424 0.85505655 0.9168315999999999 0.78953567 0.81599558 0.76457052 0.49983047 0.65676993 0.57289019 0.61484244 0.54089615 0.39077625 0.47798147 0.37671973 0.56613391 0.32402600000000004 0.24478462 0.43970075 0.23777299 0.25566436 0.2847559 0.34540402 0.15379756 -0.078810462 0.22459146 0.29375224 -0.082837109 0.059070814000000006 0.37341512 0.76557009 0.42700273 0.52756719 0.50578253 0.13154282 0.12950621 -0.15099513 0.12673297 -0.23428292 -0.29217644 -0.26470573 -0.09600617800000001 -0.184226 -0.19090339 -0.14321956 -0.24367694 -0.045045495 -0.20656957 -0.2147904 -0.20443928
0.97374424 0.85505655 0.9168315999999999 0.78953567 0.81599558 0.76457052 0.49983047 0.65676993 0.57289019 0.61484244 0.54089615 0.39077625 0.47798147 0.37671973 0.56613391 0.32402600000000004 0.24478462 0.43970075 0.23777299 0.25566436 0.2847559 0.34540402 0.15379756 -0.078810462 0.22459146 0.29375224 -0.082837109 0.059070814000000006 0.37341512 0.76557009 0.42700273 0.52756719 0.50578253 0.13154282 0.12950621 -0.15099513 0.12673297 -0.23428292 -0.29217644 -0.26470573 -0.09600617800000001 -0.184226 -0.19090339 -0.14321956 -0.24367694 -0.045045495 -0.20656957 -0.2147904 -0.20443928 -0.2594731
0.85505655 0.9168315999999999 0.78953567 0.81599558 0.76457052 0.49983047 0.65676993 0.57289019 0.61484244 0.54089615 0.39077625 0.47798147 0.37671973 0.56613391 0.32402600000000004 0.24478462 0.43970075 0.23777299 0.25566436 0.2847559 0.34540402 0.15379756 -0.078810462 0.22459146 0.29375224 -0.082837109 0.059070814000000006 0.37341512 0.76557009 0.42700273 0.52756719 0.50578253 0.13154282 0.12950621 -0.15099513 0.12673297 -0.23428292 -0.29217644 -0.26470573 -0.09600617800000001 -0.184226 -0.19090339 -0.14321956 -0.24367694 -0.045045495 -0.20656957 -0.2147904 -0.20443928 -0.2594731 0.14367171
