2.1667159 2.284215 1.7854923999999999 1.9232384999999999 2.2243859 1.6907376 0.59279901 -0.19814065 -0.43426533 -0.45957792 -0.5650328 -0.71309039 -0.75961482 -0.799381 -0.95621071 -1.0615809999999999 -1.0103316 -0.96559222 -1.0139493 -1.1065945 -1.2217788 -1.3070171 -1.2825838999999999 -1.2499333000000001 -1.3272455 -1.4259096000000002 -1.4767839 -1.5196969 -1.5450066999999998 -1.5457063999999998 -1.5298878999999999 -1.5441042 -1.6328329 -1.6235171 -1.4694138 -1.4156322000000001 -1.4220462999999999 -1.3089213 -1.1463607 -0.93081787 -0.67493262 -0.51149014 -0.33627523 -0.066463197 0.13638832 0.26325697 0.43954788 0.62767038 0.74825551 0.83209959
2.284215 1.7854923999999999 1.9232384999999999 2.2243859 1.6907376 0.59279901 -0.19814065 -0.43426533 -0.45957792 -0.5650328 -0.71309039 -0.75961482 -0.799381 -0.95621071 -1.0615809999999999 -1.0103316 -0.96559222 -1.0139493 -1.1065945 -1.2217788 -1.3070171 -1.2825838999999999 -1.2499333000000001 -1.3272455 -1.4259096000000002 -1.4767839 -1.5196969 -1.5450066999999998 -1.5457063999999998 -1.5298878999999999 -1.5441042 -1.6328329 -1.6235171 -1.4694138 -1.4156322000000001 -1.4220462999999999 -1.3089213 -1.1463607 -0.93081787 -0.67493262 -0.51149014 -0.33627523 -0.066463197 0.13638832 0.26325697 0.43954788 0.62767038 0.74825551 0.83209959 0.89968645
1.7854923999999999 1.9232384999999999 2.2243859 1.6907376 0.59279901 -0.19814065 -0.43426533 -0.45957792 -0.5650328 -0.71309039 -0.75961482 -0.799381 -0.95621071 -1.0615809999999999 -1.0103316 -0.96559222 -1.0139493 -1.1065945 -1.2217788 -1.3070171 -1.2825838999999999 -1.2499333000000001 -1.3272455 -1.4259096000000002 -1.4767839 -1.5196969 -1.5450066999999998 -1.5457063999999998 -1.5298878999999999 -1.5441042 -1.6328329 -1.6235171 -1.4694138 -1.4156322000000001 -1.4220462999999999 -1.3089213 -1.1463607 -0.93081787 -0.67493262 -0.51149014 -0.33627523 -0.066463197 0.13638832 0.26325697 0.43954788 0.62767038 0.74825551 0.83209959 0.89968645 0.96995844
1.9232384999999999 2.2243859 1.6907376 0.59279901 -0.19814065 -0.43426533 -0.45957792 -0.5650328 -0.71309039 -0.75961482 -0.799381 -0.95621071 -1.0615809999999999 -1.0103316 -0.96559222 -1.0139493 -1.1065945 -1.2217788 -1.3070171 -1.2825838999999999 -1.2499333000000001 -1.3272455 -1.4259096000000002 -1.4767839 -1.5196969 -1.5450066999999998 -1.5457063999999998 -1.5298878999999999 -1.5441042 -1.6328329 -1.6235171 -1.4694138 -1.4156322000000001 -1.4220462999999999 -1.3089213 -1.1463607 -0.93081787 -0.67493262 -0.51149014 -0.33627523 -0.066463197 0.13638832 0.26325697 0.43954788 0.62767038 0.74825551 0.83209959 0.89968645 0.96995844 1.0676785
2.2243859 1.6907376 0.59279901 -0.19814065 -0.43426533 -0.45957792 -0.5650328 -0.71309039 -0.75961482 -0.799381 -0.95621071 -1.0615809999999999 -1.0103316 -0.96559222 -1.0139493 -1.1065945 -1.2217788 -1.3070171 -1.2825838999999999 -1.2499333000000001 -1.3272455 -1.4259096000000002 -1.4767839 -1.5196969 -1.5450066999999998 -1.5457063999999998 -1.5298878999999999 -1.5441042 -1.6328329 -1.6235171 -1.4694138 -1.4156322000000001 -1.4220462999999999 -1.3089213 -1.1463607 -0.93081787 -0.67493262 -0.51149014 -0.33627523 -0.066463197 0.13638832 0.26325697 0.43954788 0.62767038 0.74825551 0.83209959 0.89968645 0.96995844 1.0676785 1.0497882
1.6907376 0.59279901 -0.19814065 -0.43426533 -0.45957792 -0.5650328 -0.71309039 -0.75961482 -0.799381 -0.95621071 -1.0615809999999999 -1.0103316 -0.96559222 -1.0139493 -1.1065945 -1.2217788 -1.3070171 -1.2825838999999999 -1.2499333000000001 -1.3272455 -1.4259096000000002 -1.4767839 -1.5196969 -1.5450066999999998 -1.5457063999999998 -1.5298878999999999 -1.5441042 -1.6328329 -1.6235171 -1.4694138 -1.4156322000000001 -1.4220462999999999 -1.3089213 -1.1463607 -0.93081787 -0.67493262 -0.51149014 -0.33627523 -0.066463197 0.13638832 0.26325697 0.43954788 0.62767038 0.74825551 0.83209959 0.89968645 0.96995844 1.0676785 1.0497882 0.93097493
0.59279901 -0.19814065 -0.43426533 -0.45957792 -0.5650328 -0.71309039 -0.75961482 -0.799381 -0.95621071 -1.0615809999999999 -1.0103316 -0.96559222 -1.0139493 -1.1065945 -1.2217788 -1.3070171 -1.2825838999999999 -1.2499333000000001 -1.3272455 -1.4259096000000002 -1.4767839 -1.5196969 -1.5450066999999998 -1.5457063999999998 -1.5298878999999999 -1.5441042 -1.6328329 -1.6235171 -1.4694138 -1.4156322000000001 -1.4220462999999999 -1.3089213 -1.1463607 -0.93081787 -0.67493262 -0.51149014 -0.33627523 -0.066463197 0.13638832 0.26325697 0.43954788 0.62767038 0.74825551 0.83209959 0.89968645 0.96995844 1.0676785 1.0497882 0.93097493 0.99617341
-0.19814065 -0.43426533 -0.45957792 -0.5650328 -0.71309039 -0.75961482 -0.799381 -0.95621071 -1.0615809999999999 -1.0103316 -0.96559222 -1.0139493 -1.1065945 -1.2217788 -1.3070171 -1.2825838999999999 -1.2499333000000001 -1.3272455 -1.4259096000000002 -1.4767839 -1.5196969 -1.5450066999999998 -1.5457063999999998 -1.5298878999999999 -1.5441042 -1.6328329 -1.6235171 -1.4694138 -1.4156322000000001 -1.4220462999999999 -1.3089213 -1.1463607 -0.93081787 -0.67493262 -0.51149014 -0.33627523 -0.066463197 0.13638832 0.26325697 0.43954788 0.62767038 0.74825551 0.83209959 0.89968645 0.96995844 1.0676785 1.0497882 0.93097493 0.99617341 1.1629241000000001
-0.43426533 -0.45957792 -0.5650328 -0.71309039 -0.75961482 -0.799381 -0.95621071 -1.0615809999999999 -1.0103316 -0.96559222 -1.0139493 -1.1065945 -1.2217788 -1.3070171 -1.2825838999999999 -1.2499333000000001 -1.3272455 -1.4259096000000002 -1.4767839 -1.5196969 -1.5450066999999998 -1.5457063999999998 -1.5298878999999999 -1.5441042 -1.6328329 -1.6235171 -1.4694138 -1.4156322000000001 -1.4220462999999999 -1.3089213 -1.1463607 -0.93081787 -0.67493262 -0.51149014 -0.33627523 -0.066463197 0.13638832 0.26325697 0.43954788 0.62767038 0.74825551 0.83209959 0.89968645 0.96995844 1.0676785 1.0497882 0.93097493 0.99617341 1.1629241000000001 1.2174583
-0.45957792 -0.5650328 -0.71309039 -0.75961482 -0.799381 -0.95621071 -1.0615809999999999 -1.0103316 -0.96559222 -1.0139493 -1.1065945 -1.2217788 -1.3070171 -1.2825838999999999 -1.2499333000000001 -1.3272455 -1.4259096000000002 -1.4767839 -1.5196969 -1.5450066999999998 -1.5457063999999998 -1.5298878999999999 -1.5441042 -1.6328329 -1.6235171 -1.4694138 -1.4156322000000001 -1.4220462999999999 -1.3089213 -1.1463607 -0.93081787 -0.67493262 -0.51149014 -0.33627523 -0.066463197 0.13638832 0.26325697 0.43954788 0.62767038 0.74825551 0.83209959 0.89968645 0.96995844 1.0676785 1.0497882 0.93097493 0.99617341 1.1629241000000001 1.2174583 1.2604235000000001
-0.5650328 -0.71309039 -0.75961482 -0.799381 -0.95621071 -1.0615809999999999 -1.0103316 -0.96559222 -1.0139493 -1.1065945 -1.2217788 -1.3070171 -1.2825838999999999 -1.2499333000000001 -1.3272455 -1.4259096000000002 -1.4767839 -1.5196969 -1.5450066999999998 -1.5457063999999998 -1.5298878999999999 -1.5441042 -1.6328329 -1.6235171 -1.4694138 -1.4156322000000001 -1.4220462999999999 -1.3089213 -1.1463607 -0.93081787 -0.67493262 -0.51149014 -0.33627523 -0.066463197 0.13638832 0.26325697 0.43954788 0.62767038 0.74825551 0.83209959 0.89968645 0.96995844 1.0676785 1.0497882 0.93097493 0.99617341 1.1629241000000001 1.2174583 1.2604235000000001 1.2206794
-0.71309039 -0.75961482 -0.799381 -0.95621071 -1.0615809999999999 -1.0103316 -0.96559222 -1.0139493 -1.1065945 -1.2217788 -1.3070171 -1.2825838999999999 -1.2499333000000001 -1.3272455 -1.4259096000000002 -1.4767839 -1.5196969 -1.5450066999999998 -1.5457063999999998 -1.5298878999999999 -1.5441042 -1.6328329 -1.6235171 -1.4694138 -1.4156322000000001 -1.4220462999999999 -1.3089213 -1.1463607 -0.93081787 -0.67493262 -0.51149014 -0.33627523 -0.066463197 0.13638832 0.26325697 0.43954788 0.62767038 0.74825551 0.83209959 0.89968645 0.96995844 1.0676785 1.0497882 0.93097493 0.99617341 1.1629241000000001 1.2174583 1.2604235000000001 1.2206794 1.0665458
-0.75961482 -0.799381 -0.95621071 -1.0615809999999999 -1.0103316 -0.96559222 -1.0139493 -1.1065945 -1.2217788 -1.3070171 -1.2825838999999999 -1.2499333000000001 -1.3272455 -1.4259096000000002 -1.4767839 -1.5196969 -1.5450066999999998 -1.5457063999999998 -1.5298878999999999 -1.5441042 -1.6328329 -1.6235171 -1.4694138 -1.4156322000000001 -1.4220462999999999 -1.3089213 -1.1463607 -0.93081787 -0.67493262 -0.51149014 -0.33627523 -0.066463197 0.13638832 0.26325697 0.43954788 0.62767038 0.74825551 0.83209959 0.89968645 0.96995844 1.0676785 1.0497882 0.93097493 0.99617341 1.1629241000000001 1.2174583 1.2604235000000001 1.2206794 1.0665458 1.0374046000000001
-0.799381 -0.95621071 -1.0615809999999999 -1.0103316 -0.96559222 -1.0139493 -1.1065945 -1.2217788 -1.3070171 -1.2825838999999999 -1.2499333000000001 -1.3272455 -1.4259096000000002 -1.4767839 -1.5196969 -1.5450066999999998 -1.5457063999999998 -1.5298878999999999 -1.5441042 -1.6328329 -1.6235171 -1.4694138 -1.4156322000000001 -1.4220462999999999 -1.3089213 -1.1463607 -0.93081787 -0.67493262 -0.51149014 -0.33627523 -0.066463197 0.13638832 0.26325697 0.43954788 0.62767038 0.74825551 0.83209959 0.89968645 0.96995844 1.0676785 1.0497882 0.93097493 0.99617341 1.1629241000000001 1.2174583 1.2604235000000001 1.2206794 1.0665458 1.0374046000000001 1.0280974
-0.95621071 -1.0615809999999999 -1.0103316 -0.96559222 -1.0139493 -1.1065945 -1.2217788 -1.3070171 -1.2825838999999999 -1.2499333000000001 -1.3272455 -1.4259096000000002 -1.4767839 -1.5196969 -1.5450066999999998 -1.5457063999999998 -1.5298878999999999 -1.5441042 -1.6328329 -1.6235171 -1.4694138 -1.4156322000000001 -1.4220462999999999 -1.3089213 -1.1463607 -0.93081787 -0.67493262 -0.51149014 -0.33627523 -0.066463197 0.13638832 0.26325697 0.43954788 0.62767038 0.74825551 0.83209959 0.89968645 0.96995844 1.0676785 1.0497882 0.93097493 0.99617341 1.1629241000000001 1.2174583 1.2604235000000001 1.2206794 1.0665458 1.0374046000000001 1.0280974 0.87633669
-1.0615809999999999 -1.0103316 -0.96559222 -1.0139493 -1.1065945 -1.2217788 -1.3070171 -1.2825838999999999 -1.2499333000000001 -1.3272455 -1.4259096000000002 -1.4767839 -1.5196969 -1.5450066999999998 -1.5457063999999998 -1.5298878999999999 -1.5441042 -1.6328329 -1.6235171 -1.4694138 -1.4156322000000001 -1.4220462999999999 -1.3089213 -1.1463607 -0.93081787 -0.67493262 -0.51149014 -0.33627523 -0.066463197 0.13638832 0.26325697 0.43954788 0.62767038 0.74825551 0.83209959 0.89968645 0.96995844 1.0676785 1.0497882 0.93097493 0.99617341 1.1629241000000001 1.2174583 1.2604235000000001 1.2206794 1.0665458 1.0374046000000001 1.0280974 0.87633669 0.7183252
-1.0103316 -0.96559222 -1.0139493 -1.1065945 -1.2217788 -1.3070171 -1.2825838999999999 -1.2499333000000001 -1.3272455 -1.4259096000000002 -1.4767839 -1.5196969 -1.5450066999999998 -1.5457063999999998 -1.5298878999999999 -1.5441042 -1.6328329 -1.6235171 -1.4694138 -1.4156322000000001 -1.4220462999999999 -1.3089213 -1.1463607 -0.93081787 -0.67493262 -0.51149014 -0.33627523 -0.066463197 0.13638832 0.26325697 0.43954788 0.62767038 0.74825551 0.83209959 0.89968645 0.96995844 1.0676785 1.0497882 0.93097493 0.99617341 1.1629241000000001 1.2174583 1.2604235000000001 1.2206794 1.0665458 1.0374046000000001 1.0280974 0.87633669 0.7183252 0.56646112
-0.96559222 -1.0139493 -1.1065945 -1.2217788 -1.3070171 -1.2825838999999999 -1.2499333000000001 -1.3272455 -1.4259096000000002 -1.4767839 -1.5196969 -1.5450066999999998 -1.5457063999999998 -1.5298878999999999 -1.5441042 -1.6328329 -1.6235171 -1.4694138 -1.4156322000000001 -1.4220462999999999 -1.3089213 -1.1463607 -0.93081787 -0.67493262 -0.51149014 -0.33627523 -0.066463197 0.13638832 0.26325697 0.43954788 0.62767038 0.74825551 0.83209959 0.89968645 0.96995844 1.0676785 1.0497882 0.93097493 0.99617341 1.1629241000000001 1.2174583 1.2604235000000001 1.2206794 1.0665458 1.0374046000000001 1.0280974 0.87633669 0.7183252 0.56646112 0.44231659
-1.0139493 -1.1065945 -1.2217788 -1.3070171 -1.2825838999999999 -1.2499333000000001 -1.3272455 -1.4259096000000002 -1.4767839 -1.5196969 -1.5450066999999998 -1.5457063999999998 -1.5298878999999999 -1.5441042 -1.6328329 -1.6235171 -1.4694138 -1.4156322000000001 -1.4220462999999999 -1.3089213 -1.1463607 -0.93081787 -0.67493262 -0.51149014 -0.33627523 -0.066463197 0.13638832 0.26325697 0.43954788 0.62767038 0.74825551 0.83209959 0.89968645 0.96995844 1.0676785 1.0497882 0.93097493 0.99617341 1.1629241000000001 1.2174583 1.2604235000000001 1.2206794 1.0665458 1.0374046000000001 1.0280974 0.87633669 0.7183252 0.56646112 0.44231659 0.42797578
-1.1065945 -1.2217788 -1.3070171 -1.2825838999999999 -1.2499333000000001 -1.3272455 -1.4259096000000002 -1.4767839 -1.5196969 -1.5450066999999998 -1.5457063999999998 -1.5298878999999999 -1.5441042 -1.6328329 -1.6235171 -1.4694138 -1.4156322000000001 -1.4220462999999999 -1.3089213 -1.1463607 -0.93081787 -0.67493262 -0.51149014 -0.33627523 -0.066463197 0.13638832 0.26325697 0.43954788 0.62767038 0.74825551 0.83209959 0.89968645 0.96995844 1.0676785 1.0497882 0.93097493 0.99617341 1.1629241000000001 1.2174583 1.2604235000000001 1.2206794 1.0665458 1.0374046000000001 1.0280974 0.87633669 0.7183252 0.56646112 0.44231659 0.42797578 0.40983454
-1.2217788 -1.3070171 -1.2825838999999999 -1.2499333000000001 -1.3272455 -1.4259096000000002 -1.4767839 -1.5196969 -1.5450066999999998 -1.5457063999999998 -1.5298878999999999 -1.5441042 -1.6328329 -1.6235171 -1.4694138 -1.4156322000000001 -1.4220462999999999 -1.3089213 -1.1463607 -0.93081787 -0.67493262 -0.51149014 -0.33627523 -0.066463197 0.13638832 0.26325697 0.43954788 0.62767038 0.74825551 0.83209959 0.89968645 0.96995844 1.0676785 1.0497882 0.93097493 0.99617341 1.1629241000000001 1.2174583 1.2604235000000001 1.2206794 1.0665458 1.0374046000000001 1.0280974 0.87633669 0.7183252 0.56646112 0.44231659 0.42797578 0.40983454 0.36088664
-1.3070171 -1.2825838999999999 -1.2499333000000001 -1.3272455 -1.4259096000000002 -1.4767839 -1.5196969 -1.5450066999999998 -1.5457063999999998 -1.5298878999999999 -1.5441042 -1.6328329 -1.6235171 -1.4694138 -1.4156322000000001 -1.4220462999999999 -1.3089213 -1.1463607 -0.93081787 -0.67493262 -0.51149014 -0.33627523 -0.066463197 0.13638832 0.26325697 0.43954788 0.62767038 0.74825551 0.83209959 0.89968645 0.96995844 1.0676785 1.0497882 0.93097493 0.99617341 1.1629241000000001 1.2174583 1.2604235000000001 1.2206794 1.0665458 1.0374046000000001 1.0280974 0.87633669 0.7183252 0.56646112 0.44231659 0.42797578 0.40983454 0.36088664 0.35148882
-1.2825838999999999 -1.2499333000000001 -1.3272455 -1.4259096000000002 -1.4767839 -1.5196969 -1.5450066999999998 -1.5457063999999998 -1.5298878999999999 -1.5441042 -1.6328329 -1.6235171 -1.4694138 -1.4156322000000001 -1.4220462999999999 -1.3089213 -1.1463607 -0.93081787 -0.67493262 -0.51149014 -0.33627523 -0.066463197 0.13638832 0.26325697 0.43954788 0.62767038 0.74825551 0.83209959 0.89968645 0.96995844 1.0676785 1.0497882 0.93097493 0.99617341 1.1629241000000001 1.2174583 1.2604235000000001 1.2206794 1.0665458 1.0374046000000001 1.0280974 0.87633669 0.7183252 0.56646112 0.44231659 0.42797578 0.40983454 0.36088664 0.35148882 0.32014570000000003
-1.2499333000000001 -1.3272455 -1.4259096000000002 -1.4767839 -1.5196969 -1.5450066999999998 -1.5457063999999998 -1.5298878999999999 -1.5441042 -1.6328329 -1.6235171 -1.4694138 -1.4156322000000001 -1.4220462999999999 -1.3089213 -1.1463607 -0.93081787 -0.67493262 -0.51149014 -0.33627523 -0.066463197 0.13638832 0.26325697 0.43954788 0.62767038 0.74825551 0.83209959 0.89968645 0.96995844 1.0676785 1.0497882 0.93097493 0.99617341 1.1629241000000001 1.2174583 1.2604235000000001 1.2206794 1.0665458 1.0374046000000001 1.0280974 0.87633669 0.7183252 0.56646112 0.44231659 0.42797578 0.40983454 0.36088664 0.35148882 0.32014570000000003 0.28116669
-1.3272455 -1.4259096000000002 -1.4767839 -1.5196969 -1.5450066999999998 -1.5457063999999998 -1.5298878999999999 -1.5441042 -1.6328329 -1.6235171 -1.4694138 -1.4156322000000001 -1.4220462999999999 -1.3089213 -1.1463607 -0.93081787 -0.67493262 -0.51149014 -0.33627523 -0.066463197 0.13638832 0.26325697 0.43954788 0.62767038 0.74825551 0.83209959 0.89968645 0.96995844 1.0676785 1.0497882 0.93097493 0.99617341 1.1629241000000001 1.2174583 1.2604235000000001 1.2206794 1.0665458 1.0374046000000001 1.0280974 0.87633669 0.7183252 0.56646112 0.44231659 0.42797578 0.40983454 0.36088664 0.35148882 0.32014570000000003 0.28116669 0.30648701
-1.4259096000000002 -1.4767839 -1.5196969 -1.5450066999999998 -1.5457063999999998 -1.5298878999999999 -1.5441042 -1.6328329 -1.6235171 -1.4694138 -1.4156322000000001 -1.4220462999999999 -1.3089213 -1.1463607 -0.93081787 -0.67493262 -0.51149014 -0.33627523 -0.066463197 0.13638832 0.26325697 0.43954788 0.62767038 0.74825551 0.83209959 0.89968645 0.96995844 1.0676785 1.0497882 0.93097493 0.99617341 1.1629241000000001 1.2174583 1.2604235000000001 1.2206794 1.0665458 1.0374046000000001 1.0280974 0.87633669 0.7183252 0.56646112 0.44231659 0.42797578 0.40983454 0.36088664 0.35148882 0.32014570000000003 0.28116669 0.30648701 0.30455869
-1.4767839 -1.5196969 -1.5450066999999998 -1.5457063999999998 -1.5298878999999999 -1.5441042 -1.6328329 -1.6235171 -1.4694138 -1.4156322000000001 -1.4220462999999999 -1.3089213 -1.1463607 -0.93081787 -0.67493262 -0.51149014 -0.33627523 -0.066463197 0.13638832 0.26325697 0.43954788 0.62767038 0.74825551 0.83209959 0.89968645 0.96995844 1.0676785 1.0497882 0.93097493 0.99617341 1.1629241000000001 1.2174583 1.2604235000000001 1.2206794 1.0665458 1.0374046000000001 1.0280974 0.87633669 0.7183252 0.56646112 0.44231659 0.42797578 0.40983454 0.36088664 0.35148882 0.32014570000000003 0.28116669 0.30648701 0.30455869 0.23258023
-1.5196969 -1.5450066999999998 -1.5457063999999998 -1.5298878999999999 -1.5441042 -1.6328329 -1.6235171 -1.4694138 -1.4156322000000001 -1.4220462999999999 -1.3089213 -1.1463607 -0.93081787 -0.67493262 -0.51149014 -0.33627523 -0.066463197 0.13638832 0.26325697 0.43954788 0.62767038 0.74825551 0.83209959 0.89968645 0.96995844 1.0676785 1.0497882 0.93097493 0.99617341 1.1629241000000001 1.2174583 1.2604235000000001 1.2206794 1.0665458 1.0374046000000001 1.0280974 0.87633669 0.7183252 0.56646112 0.44231659 0.42797578 0.40983454 0.36088664 0.35148882 0.32014570000000003 0.28116669 0.30648701 0.30455869 0.23258023 0.23221348
-1.5450066999999998 -1.5457063999999998 -1.5298878999999999 -1.5441042 -1.6328329 -1.6235171 -1.4694138 -1.4156322000000001 -1.4220462999999999 -1.3089213 -1.1463607 -0.93081787 -0.67493262 -0.51149014 -0.33627523 -0.066463197 0.13638832 0.26325697 0.43954788 0.62767038 0.74825551 0.83209959 0.89968645 0.96995844 1.0676785 1.0497882 0.93097493 0.99617341 1.1629241000000001 1.2174583 1.2604235000000001 1.2206794 1.0665458 1.0374046000000001 1.0280974 0.87633669 0.7183252 0.56646112 0.44231659 0.42797578 0.40983454 0.36088664 0.35148882 0.32014570000000003 0.28116669 0.30648701 0.30455869 0.23258023 0.23221348 0.27864968
-1.5457063999999998 -1.5298878999999999 -1.5441042 -1.6328329 -1.6235171 -1.4694138 -1.4156322000000001 -1.4220462999999999 -1.3089213 -1.1463607 -0.93081787 -0.67493262 -0.51149014 -0.33627523 -0.066463197 0.13638832 0.26325697 0.43954788 0.62767038 0.74825551 0.83209959 0.89968645 0.96995844 1.0676785 1.0497882 0.93097493 0.99617341 1.1629241000000001 1.2174583 1.2604235000000001 1.2206794 1.0665458 1.0374046000000001 1.0280974 0.87633669 0.7183252 0.56646112 0.44231659 0.42797578 0.40983454 0.36088664 0.35148882 0.32014570000000003 0.28116669 0.30648701 0.30455869 0.23258023 0.23221348 0.27864968 0.22146146
-1.5298878999999999 -1.5441042 -1.6328329 -1.6235171 -1.4694138 -1.4156322000000001 -1.4220462999999999 -1.3089213 -1.1463607 -0.93081787 -0.67493262 -0.51149014 -0.33627523 -0.066463197 0.13638832 0.26325697 0.43954788 0.62767038 0.74825551 0.83209959 0.89968645 0.96995844 1.0676785 1.0497882 0.93097493 0.99617341 1.1629241000000001 1.2174583 1.2604235000000001 1.2206794 1.0665458 1.0374046000000001 1.0280974 0.87633669 0.7183252 0.56646112 0.44231659 0.42797578 0.40983454 0.36088664 0.35148882 0.32014570000000003 0.28116669 0.30648701 0.30455869 0.23258023 0.23221348 0.27864968 0.22146146 0.19771907
-1.5441042 -1.6328329 -1.6235171 -1.4694138 -1.4156322000000001 -1.4220462999999999 -1.3089213 -1.1463607 -0.93081787 -0.67493262 -0.51149014 -0.33627523 -0.066463197 0.13638832 0.26325697 0.43954788 0.62767038 0.74825551 0.83209959 0.89968645 0.96995844 1.0676785 1.0497882 0.93097493 0.99617341 1.1629241000000001 1.2174583 1.2604235000000001 1.2206794 1.0665458 1.0374046000000001 1.0280974 0.87633669 0.7183252 0.56646112 0.44231659 0.42797578 0.40983454 0.36088664 0.35148882 0.32014570000000003 0.28116669 0.30648701 0.30455869 0.23258023 0.23221348 0.27864968 0.22146146 0.19771907 0.30678074
-1.6328329 -1.6235171 -1.4694138 -1.4156322000000001 -1.4220462999999999 -1.3089213 -1.1463607 -0.93081787 -0.67493262 -0.51149014 -0.33627523 -0.066463197 0.13638832 0.26325697 0.43954788 0.62767038 0.74825551 0.83209959 0.89968645 0.96995844 1.0676785 1.0497882 0.93097493 0.99617341 1.1629241000000001 1.2174583 1.2604235000000001 1.2206794 1.0665458 1.0374046000000001 1.0280974 0.87633669 0.7183252 0.56646112 0.44231659 0.42797578 0.40983454 0.36088664 0.35148882 0.32014570000000003 0.28116669 0.30648701 0.30455869 0.23258023 0.23221348 0.27864968 0.22146146 0.19771907 0.30678074 0.34047874
-1.6235171 -1.4694138 -1.4156322000000001 -1.4220462999999999 -1.3089213 -1.1463607 -0.93081787 -0.67493262 -0.51149014 -0.33627523 -0.066463197 0.13638832 0.26325697 0.43954788 0.62767038 0.74825551 0.83209959 0.89968645 0.96995844 1.0676785 1.0497882 0.93097493 0.99617341 1.1629241000000001 1.2174583 1.2604235000000001 1.2206794 1.0665458 1.0374046000000001 1.0280974 0.87633669 0.7183252 0.56646112 0.44231659 0.42797578 0.40983454 0.36088664 0.35148882 0.32014570000000003 0.28116669 0.30648701 0.30455869 0.23258023 0.23221348 0.27864968 0.22146146 0.19771907 0.30678074 0.34047874 0.25722383
-1.4694138 -1.4156322000000001 -1.4220462999999999 -1.3089213 -1.1463607 -0.93081787 -0.67493262 -0.51149014 -0.33627523 -0.066463197 0.13638832 0.26325697 0.43954788 0.62767038 0.74825551 0.83209959 0.89968645 0.96995844 1.0676785 1.0497882 0.93097493 0.99617341 1.1629241000000001 1.2174583 1.2604235000000001 1.2206794 1.0665458 1.0374046000000001 1.0280974 0.87633669 0.7183252 0.56646112 0.44231659 0.42797578 0.40983454 0.36088664 0.35148882 0.32014570000000003 0.28116669 0.30648701 0.30455869 0.23258023 0.23221348 0.27864968 0.22146146 0.19771907 0.30678074 0.34047874 0.25722383 0.15948639
-1.4156322000000001 -1.4220462999999999 -1.3089213 -1.1463607 -0.93081787 -0.67493262 -0.51149014 -0.33627523 -0.066463197 0.13638832 0.26325697 0.43954788 0.62767038 0.74825551 0.83209959 0.89968645 0.96995844 1.0676785 1.0497882 0.93097493 0.99617341 1.1629241000000001 1.2174583 1.2604235000000001 1.2206794 1.0665458 1.0374046000000001 1.0280974 0.87633669 0.7183252 0.56646112 0.44231659 0.42797578 0.40983454 0.36088664 0.35148882 0.32014570000000003 0.28116669 0.30648701 0.30455869 0.23258023 0.23221348 0.27864968 0.22146146 0.19771907 0.30678074 0.34047874 0.25722383 0.15948639 0.082376794
-1.4220462999999999 -1.3089213 -1.1463607 -0.93081787 -0.67493262 -0.51149014 -0.33627523 -0.066463197 0.13638832 0.26325697 0.43954788 0.62767038 0.74825551 0.83209959 0.89968645 0.96995844 1.0676785 1.0497882 0.93097493 0.99617341 1.1629241000000001 1.2174583 1.2604235000000001 1.2206794 1.0665458 1.0374046000000001 1.0280974 0.87633669 0.7183252 0.56646112 0.44231659 0.42797578 0.40983454 0.36088664 0.35148882 0.32014570000000003 0.28116669 0.30648701 0.30455869 0.23258023 0.23221348 0.27864968 0.22146146 0.19771907 0.30678074 0.34047874 0.25722383 0.15948639 0.082376794 0.13271749
-1.3089213 -1.1463607 -0.93081787 -0.67493262 -0.51149014 -0.33627523 -0.066463197 0.13638832 0.26325697 0.43954788 0.62767038 0.74825551 0.83209959 0.89968645 0.96995844 1.0676785 1.0497882 0.93097493 0.99617341 1.1629241000000001 1.2174583 1.2604235000000001 1.2206794 1.0665458 1.0374046000000001 1.0280974 0.87633669 0.7183252 0.56646112 0.44231659 0.42797578 0.40983454 0.36088664 0.35148882 0.32014570000000003 0.28116669 0.30648701 0.30455869 0.23258023 0.23221348 0.27864968 0.22146146 0.19771907 0.30678074 0.34047874 0.25722383 0.15948639 0.082376794 0.13271749 0.25138307
-1.1463607 -0.93081787 -0.67493262 -0.51149014 -0.33627523 -0.066463197 0.13638832 0.26325697 0.43954788 0.62767038 0.74825551 0.83209959 0.89968645 0.96995844 1.0676785 1.0497882 0.93097493 0.99617341 1.1629241000000001 1.2174583 1.2604235000000001 1.2206794 1.0665458 1.0374046000000001 1.0280974 0.87633669 0.7183252 0.56646112 0.44231659 0.42797578 0.40983454 0.36088664 0.35148882 0.32014570000000003 0.28116669 0.30648701 0.30455869 0.23258023 0.23221348 0.27864968 0.22146146 0.19771907 0.30678074 0.34047874 0.25722383 0.15948639 0.082376794 0.13271749 0.25138307 0.24408782
-0.93081787 -0.67493262 -0.51149014 -0.33627523 -0.066463197 0.13638832 0.26325697 0.43954788 0.62767038 0.74825551 0.83209959 0.89968645 0.96995844 1.0676785 1.0497882 0.93097493 0.99617341 1.1629241000000001 1.2174583 1.2604235000000001 1.2206794 1.0665458 1.0374046000000001 1.0280974 0.87633669 0.7183252 0.56646112 0.44231659 0.42797578 0.40983454 0.36088664 0.35148882 0.32014570000000003 0.28116669 0.30648701 0.30455869 0.23258023 0.23221348 0.27864968 0.22146146 0.19771907 0.30678074 0.34047874 0.25722383 0.15948639 0.082376794 0.13271749 0.25138307 0.24408782 0.15267108
-0.67493262 -0.51149014 -0.33627523 -0.066463197 0.13638832 0.26325697 0.43954788 0.62767038 0.74825551 0.83209959 0.89968645 0.96995844 1.0676785 1.0497882 0.93097493 0.99617341 1.1629241000000001 1.2174583 1.2604235000000001 1.2206794 1.0665458 1.0374046000000001 1.0280974 0.87633669 0.7183252 0.56646112 0.44231659 0.42797578 0.40983454 0.36088664 0.35148882 0.32014570000000003 0.28116669 0.30648701 0.30455869 0.23258023 0.23221348 0.27864968 0.22146146 0.19771907 0.30678074 0.34047874 0.25722383 0.15948639 0.082376794 0.13271749 0.25138307 0.24408782 0.15267108 0.081487161
-0.51149014 -0.33627523 -0.066463197 0.13638832 0.26325697 0.43954788 0.62767038 0.74825551 0.83209959 0.89968645 0.96995844 1.0676785 1.0497882 0.93097493 0.99617341 1.1629241000000001 1.2174583 1.2604235000000001 1.2206794 1.0665458 1.0374046000000001 1.0280974 0.87633669 0.7183252 0.56646112 0.44231659 0.42797578 0.40983454 0.36088664 0.35148882 0.32014570000000003 0.28116669 0.30648701 0.30455869 0.23258023 0.23221348 0.27864968 0.22146146 0.19771907 0.30678074 0.34047874 0.25722383 0.15948639 0.082376794 0.13271749 0.25138307 0.24408782 0.15267108 0.081487161 0.10038863
-0.33627523 -0.066463197 0.13638832 0.26325697 0.43954788 0.62767038 0.74825551 0.83209959 0.89968645 0.96995844 1.0676785 1.0497882 0.93097493 0.99617341 1.1629241000000001 1.2174583 1.2604235000000001 1.2206794 1.0665458 1.0374046000000001 1.0280974 0.87633669 0.7183252 0.56646112 0.44231659 0.42797578 0.40983454 0.36088664 0.35148882 0.32014570000000003 0.28116669 0.30648701 0.30455869 0.23258023 0.23221348 0.27864968 0.22146146 0.19771907 0.30678074 0.34047874 0.25722383 0.15948639 0.082376794 0.13271749 0.25138307 0.24408782 0.15267108 0.081487161 0.10038863 0.22872313
-0.066463197 0.13638832 0.26325697 0.43954788 0.62767038 0.74825551 0.83209959 0.89968645 0.96995844 1.0676785 1.0497882 0.93097493 0.99617341 1.1629241000000001 1.2174583 1.2604235000000001 1.2206794 1.0665458 1.0374046000000001 1.0280974 0.87633669 0.7183252 0.56646112 0.44231659 0.42797578 0.40983454 0.36088664 0.35148882 0.32014570000000003 0.28116669 0.30648701 0.30455869 0.23258023 0.23221348 0.27864968 0.22146146 0.19771907 0.30678074 0.34047874 0.25722383 0.15948639 0.082376794 0.13271749 0.25138307 0.24408782 0.15267108 0.081487161 0.10038863 0.22872313 0.2538998
0.13638832 0.26325697 0.43954788 0.62767038 0.74825551 0.83209959 0.89968645 0.96995844 1.0676785 1.0497882 0.93097493 0.99617341 1.1629241000000001 1.2174583 1.2604235000000001 1.2206794 1.0665458 1.0374046000000001 1.0280974 0.87633669 0.7183252 0.56646112 0.44231659 0.42797578 0.40983454 0.36088664 0.35148882 0.32014570000000003 0.28116669 0.30648701 0.30455869 0.23258023 0.23221348 0.27864968 0.22146146 0.19771907 0.30678074 0.34047874 0.25722383 0.15948639 0.082376794 0.13271749 0.25138307 0.24408782 0.15267108 0.081487161 0.10038863 0.22872313 0.2538998 0.13794377
0.26325697 0.43954788 0.62767038 0.74825551 0.83209959 0.89968645 0.96995844 1.0676785 1.0497882 0.93097493 0.99617341 1.1629241000000001 1.2174583 1.2604235000000001 1.2206794 1.0665458 1.0374046000000001 1.0280974 0.87633669 0.7183252 0.56646112 0.44231659 0.42797578 0.40983454 0.36088664 0.35148882 0.32014570000000003 0.28116669 0.30648701 0.30455869 0.23258023 0.23221348 0.27864968 0.22146146 0.19771907 0.30678074 0.34047874 0.25722383 0.15948639 0.082376794 0.13271749 0.25138307 0.24408782 0.15267108 0.081487161 0.10038863 0.22872313 0.2538998 0.13794377 0.1993058
0.43954788 0.62767038 0.74825551 0.83209959 0.89968645 0.96995844 1.0676785 1.0497882 0.93097493 0.99617341 1.1629241000000001 1.2174583 1.2604235000000001 1.2206794 1.0665458 1.0374046000000001 1.0280974 0.87633669 0.7183252 0.56646112 0.44231659 0.42797578 0.40983454 0.36088664 0.35148882 0.32014570000000003 0.28116669 0.30648701 0.30455869 0.23258023 0.23221348 0.27864968 0.22146146 0.19771907 0.30678074 0.34047874 0.25722383 0.15948639 0.082376794 0.13271749 0.25138307 0.24408782 0.15267108 0.081487161 0.10038863 0.22872313 0.2538998 0.13794377 0.1993058 0.4775621
