1.3971093 2.2885831000000003 2.4340417999999997 2.3545672000000004 2.3225632000000003 1.9834299 1.3102738 0.64807903 -0.017222812 -0.51081279 -0.36040726 -0.094296865 -0.42289316 -0.59953622 -0.15652846 -0.014679595 -0.31324582 -0.4369491 -0.65324945 -0.96135679 -0.79907716 -0.63679183 -0.95354458 -1.1025198999999999 -1.0039662 -1.1739966999999998 -1.2370328000000002 -0.9487888000000001 -0.92823331 -1.2255539 -1.3603722 -1.3778245 -1.4315548999999999 -1.4836421 -1.6023813999999998 -1.6619765 -1.5269133999999998 -1.5467346000000002 -1.8137025000000002 -1.8438218000000002 -1.6124578999999999 -1.5420541 -1.5475048999999999 -1.3193131999999999 -0.98673594 -0.77435838 -0.6432177 -0.51982583 -0.41192015 -0.27226538
2.2885831000000003 2.4340417999999997 2.3545672000000004 2.3225632000000003 1.9834299 1.3102738 0.64807903 -0.017222812 -0.51081279 -0.36040726 -0.094296865 -0.42289316 -0.59953622 -0.15652846 -0.014679595 -0.31324582 -0.4369491 -0.65324945 -0.96135679 -0.79907716 -0.63679183 -0.95354458 -1.1025198999999999 -1.0039662 -1.1739966999999998 -1.2370328000000002 -0.9487888000000001 -0.92823331 -1.2255539 -1.3603722 -1.3778245 -1.4315548999999999 -1.4836421 -1.6023813999999998 -1.6619765 -1.5269133999999998 -1.5467346000000002 -1.8137025000000002 -1.8438218000000002 -1.6124578999999999 -1.5420541 -1.5475048999999999 -1.3193131999999999 -0.98673594 -0.77435838 -0.6432177 -0.51982583 -0.41192015 -0.27226538 -0.05605766400000001
2.4340417999999997 2.3545672000000004 2.3225632000000003 1.9834299 1.3102738 0.64807903 -0.017222812 -0.51081279 -0.36040726 -0.094296865 -0.42289316 -0.59953622 -0.15652846 -0.014679595 -0.31324582 -0.4369491 -0.65324945 -0.96135679 -0.79907716 -0.63679183 -0.95354458 -1.1025198999999999 -1.0039662 -1.1739966999999998 -1.2370328000000002 -0.9487888000000001 -0.92823331 -1.2255539 -1.3603722 -1.3778245 -1.4315548999999999 -1.4836421 -1.6023813999999998 -1.6619765 -1.5269133999999998 -1.5467346000000002 -1.8137025000000002 -1.8438218000000002 -1.6124578999999999 -1.5420541 -1.5475048999999999 -1.3193131999999999 -0.98673594 -0.77435838 -0.6432177 -0.51982583 -0.41192015 -0.27226538 -0.05605766400000001 0.13796641
2.3545672000000004 2.3225632000000003 1.9834299 1.3102738 0.64807903 -0.017222812 -0.51081279 -0.36040726 -0.094296865 -0.42289316 -0.59953622 -0.15652846 -0.014679595 -0.31324582 -0.4369491 -0.65324945 -0.96135679 -0.79907716 -0.63679183 -0.95354458 -1.1025198999999999 -1.0039662 -1.1739966999999998 -1.2370328000000002 -0.9487888000000001 -0.92823331 -1.2255539 -1.3603722 -1.3778245 -1.4315548999999999 -1.4836421 -1.6023813999999998 -1.6619765 -1.5269133999999998 -1.5467346000000002 -1.8137025000000002 -1.8438218000000002 -1.6124578999999999 -1.5420541 -1.5475048999999999 -1.3193131999999999 -0.98673594 -0.77435838 -0.6432177 -0.51982583 -0.41192015 -0.27226538 -0.05605766400000001 0.13796641 0.23100576
2.3225632000000003 1.9834299 1.3102738 0.64807903 -0.017222812 -0.51081279 -0.36040726 -0.094296865 -0.42289316 -0.59953622 -0.15652846 -0.014679595 -0.31324582 -0.4369491 -0.65324945 -0.96135679 -0.79907716 -0.63679183 -0.95354458 -1.1025198999999999 -1.0039662 -1.1739966999999998 -1.2370328000000002 -0.9487888000000001 -0.92823331 -1.2255539 -1.3603722 -1.3778245 -1.4315548999999999 -1.4836421 -1.6023813999999998 -1.6619765 -1.5269133999999998 -1.5467346000000002 -1.8137025000000002 -1.8438218000000002 -1.6124578999999999 -1.5420541 -1.5475048999999999 -1.3193131999999999 -0.98673594 -0.77435838 -0.6432177 -0.51982583 -0.41192015 -0.27226538 -0.05605766400000001 0.13796641 0.23100576 0.31626444
1.9834299 1.3102738 0.64807903 -0.017222812 -0.51081279 -0.36040726 -0.094296865 -0.42289316 -0.59953622 -0.15652846 -0.014679595 -0.31324582 -0.4369491 -0.65324945 -0.96135679 -0.79907716 -0.63679183 -0.95354458 -1.1025198999999999 -1.0039662 -1.1739966999999998 -1.2370328000000002 -0.9487888000000001 -0.92823331 -1.2255539 -1.3603722 -1.3778245 -1.4315548999999999 -1.4836421 -1.6023813999999998 -1.6619765 -1.5269133999999998 -1.5467346000000002 -1.8137025000000002 -1.8438218000000002 -1.6124578999999999 -1.5420541 -1.5475048999999999 -1.3193131999999999 -0.98673594 -0.77435838 -0.6432177 -0.51982583 -0.41192015 -0.27226538 -0.05605766400000001 0.13796641 0.23100576 0.31626444 0.41062443
1.3102738 0.64807903 -0.017222812 -0.51081279 -0.36040726 -0.094296865 -0.42289316 -0.59953622 -0.15652846 -0.014679595 -0.31324582 -0.4369491 -0.65324945 -0.96135679 -0.79907716 -0.63679183 -0.95354458 -1.1025198999999999 -1.0039662 -1.1739966999999998 -1.2370328000000002 -0.9487888000000001 -0.92823331 -1.2255539 -1.3603722 -1.3778245 -1.4315548999999999 -1.4836421 -1.6023813999999998 -1.6619765 -1.5269133999999998 -1.5467346000000002 -1.8137025000000002 -1.8438218000000002 -1.6124578999999999 -1.5420541 -1.5475048999999999 -1.3193131999999999 -0.98673594 -0.77435838 -0.6432177 -0.51982583 -0.41192015 -0.27226538 -0.05605766400000001 0.13796641 0.23100576 0.31626444 0.41062443 0.43363741
0.64807903 -0.017222812 -0.51081279 -0.36040726 -0.094296865 -0.42289316 -0.59953622 -0.15652846 -0.014679595 -0.31324582 -0.4369491 -0.65324945 -0.96135679 -0.79907716 -0.63679183 -0.95354458 -1.1025198999999999 -1.0039662 -1.1739966999999998 -1.2370328000000002 -0.9487888000000001 -0.92823331 -1.2255539 -1.3603722 -1.3778245 -1.4315548999999999 -1.4836421 -1.6023813999999998 -1.6619765 -1.5269133999999998 -1.5467346000000002 -1.8137025000000002 -1.8438218000000002 -1.6124578999999999 -1.5420541 -1.5475048999999999 -1.3193131999999999 -0.98673594 -0.77435838 -0.6432177 -0.51982583 -0.41192015 -0.27226538 -0.05605766400000001 0.13796641 0.23100576 0.31626444 0.41062443 0.43363741 0.49259458
-0.017222812 -0.51081279 -0.36040726 -0.094296865 -0.42289316 -0.59953622 -0.15652846 -0.014679595 -0.31324582 -0.4369491 -0.65324945 -0.96135679 -0.79907716 -0.63679183 -0.95354458 -1.1025198999999999 -1.0039662 -1.1739966999999998 -1.2370328000000002 -0.9487888000000001 -0.92823331 -1.2255539 -1.3603722 -1.3778245 -1.4315548999999999 -1.4836421 -1.6023813999999998 -1.6619765 -1.5269133999999998 -1.5467346000000002 -1.8137025000000002 -1.8438218000000002 -1.6124578999999999 -1.5420541 -1.5475048999999999 -1.3193131999999999 -0.98673594 -0.77435838 -0.6432177 -0.51982583 -0.41192015 -0.27226538 -0.05605766400000001 0.13796641 0.23100576 0.31626444 0.41062443 0.43363741 0.49259458 0.59999188
-0.51081279 -0.36040726 -0.094296865 -0.42289316 -0.59953622 -0.15652846 -0.014679595 -0.31324582 -0.4369491 -0.65324945 -0.96135679 -0.79907716 -0.63679183 -0.95354458 -1.1025198999999999 -1.0039662 -1.1739966999999998 -1.2370328000000002 -0.9487888000000001 -0.92823331 -1.2255539 -1.3603722 -1.3778245 -1.4315548999999999 -1.4836421 -1.6023813999999998 -1.6619765 -1.5269133999999998 -1.5467346000000002 -1.8137025000000002 -1.8438218000000002 -1.6124578999999999 -1.5420541 -1.5475048999999999 -1.3193131999999999 -0.98673594 -0.77435838 -0.6432177 -0.51982583 -0.41192015 -0.27226538 -0.05605766400000001 0.13796641 0.23100576 0.31626444 0.41062443 0.43363741 0.49259458 0.59999188 0.55345609
-0.36040726 -0.094296865 -0.42289316 -0.59953622 -0.15652846 -0.014679595 -0.31324582 -0.4369491 -0.65324945 -0.96135679 -0.79907716 -0.63679183 -0.95354458 -1.1025198999999999 -1.0039662 -1.1739966999999998 -1.2370328000000002 -0.9487888000000001 -0.92823331 -1.2255539 -1.3603722 -1.3778245 -1.4315548999999999 -1.4836421 -1.6023813999999998 -1.6619765 -1.5269133999999998 -1.5467346000000002 -1.8137025000000002 -1.8438218000000002 -1.6124578999999999 -1.5420541 -1.5475048999999999 -1.3193131999999999 -0.98673594 -0.77435838 -0.6432177 -0.51982583 -0.41192015 -0.27226538 -0.05605766400000001 0.13796641 0.23100576 0.31626444 0.41062443 0.43363741 0.49259458 0.59999188 0.55345609 0.51879557
-0.094296865 -0.42289316 -0.59953622 -0.15652846 -0.014679595 -0.31324582 -0.4369491 -0.65324945 -0.96135679 -0.79907716 -0.63679183 -0.95354458 -1.1025198999999999 -1.0039662 -1.1739966999999998 -1.2370328000000002 -0.9487888000000001 -0.92823331 -1.2255539 -1.3603722 -1.3778245 -1.4315548999999999 -1.4836421 -1.6023813999999998 -1.6619765 -1.5269133999999998 -1.5467346000000002 -1.8137025000000002 -1.8438218000000002 -1.6124578999999999 -1.5420541 -1.5475048999999999 -1.3193131999999999 -0.98673594 -0.77435838 -0.6432177 -0.51982583 -0.41192015 -0.27226538 -0.05605766400000001 0.13796641 0.23100576 0.31626444 0.41062443 0.43363741 0.49259458 0.59999188 0.55345609 0.51879557 0.68588751
-0.42289316 -0.59953622 -0.15652846 -0.014679595 -0.31324582 -0.4369491 -0.65324945 -0.96135679 -0.79907716 -0.63679183 -0.95354458 -1.1025198999999999 -1.0039662 -1.1739966999999998 -1.2370328000000002 -0.9487888000000001 -0.92823331 -1.2255539 -1.3603722 -1.3778245 -1.4315548999999999 -1.4836421 -1.6023813999999998 -1.6619765 -1.5269133999999998 -1.5467346000000002 -1.8137025000000002 -1.8438218000000002 -1.6124578999999999 -1.5420541 -1.5475048999999999 -1.3193131999999999 -0.98673594 -0.77435838 -0.6432177 -0.51982583 -0.41192015 -0.27226538 -0.05605766400000001 0.13796641 0.23100576 0.31626444 0.41062443 0.43363741 0.49259458 0.59999188 0.55345609 0.51879557 0.68588751 0.67408309
-0.59953622 -0.15652846 -0.014679595 -0.31324582 -0.4369491 -0.65324945 -0.96135679 -0.79907716 -0.63679183 -0.95354458 -1.1025198999999999 -1.0039662 -1.1739966999999998 -1.2370328000000002 -0.9487888000000001 -0.92823331 -1.2255539 -1.3603722 -1.3778245 -1.4315548999999999 -1.4836421 -1.6023813999999998 -1.6619765 -1.5269133999999998 -1.5467346000000002 -1.8137025000000002 -1.8438218000000002 -1.6124578999999999 -1.5420541 -1.5475048999999999 -1.3193131999999999 -0.98673594 -0.77435838 -0.6432177 -0.51982583 -0.41192015 -0.27226538 -0.05605766400000001 0.13796641 0.23100576 0.31626444 0.41062443 0.43363741 0.49259458 0.59999188 0.55345609 0.51879557 0.68588751 0.67408309 0.44879707
-0.15652846 -0.014679595 -0.31324582 -0.4369491 -0.65324945 -0.96135679 -0.79907716 -0.63679183 -0.95354458 -1.1025198999999999 -1.0039662 -1.1739966999999998 -1.2370328000000002 -0.9487888000000001 -0.92823331 -1.2255539 -1.3603722 -1.3778245 -1.4315548999999999 -1.4836421 -1.6023813999999998 -1.6619765 -1.5269133999999998 -1.5467346000000002 -1.8137025000000002 -1.8438218000000002 -1.6124578999999999 -1.5420541 -1.5475048999999999 -1.3193131999999999 -0.98673594 -0.77435838 -0.6432177 -0.51982583 -0.41192015 -0.27226538 -0.05605766400000001 0.13796641 0.23100576 0.31626444 0.41062443 0.43363741 0.49259458 0.59999188 0.55345609 0.51879557 0.68588751 0.67408309 0.44879707 0.5100268
-0.014679595 -0.31324582 -0.4369491 -0.65324945 -0.96135679 -0.79907716 -0.63679183 -0.95354458 -1.1025198999999999 -1.0039662 -1.1739966999999998 -1.2370328000000002 -0.9487888000000001 -0.92823331 -1.2255539 -1.3603722 -1.3778245 -1.4315548999999999 -1.4836421 -1.6023813999999998 -1.6619765 -1.5269133999999998 -1.5467346000000002 -1.8137025000000002 -1.8438218000000002 -1.6124578999999999 -1.5420541 -1.5475048999999999 -1.3193131999999999 -0.98673594 -0.77435838 -0.6432177 -0.51982583 -0.41192015 -0.27226538 -0.05605766400000001 0.13796641 0.23100576 0.31626444 0.41062443 0.43363741 0.49259458 0.59999188 0.55345609 0.51879557 0.68588751 0.67408309 0.44879707 0.5100268 0.65705181
-0.31324582 -0.4369491 -0.65324945 -0.96135679 -0.79907716 -0.63679183 -0.95354458 -1.1025198999999999 -1.0039662 -1.1739966999999998 -1.2370328000000002 -0.9487888000000001 -0.92823331 -1.2255539 -1.3603722 -1.3778245 -1.4315548999999999 -1.4836421 -1.6023813999999998 -1.6619765 -1.5269133999999998 -1.5467346000000002 -1.8137025000000002 -1.8438218000000002 -1.6124578999999999 -1.5420541 -1.5475048999999999 -1.3193131999999999 -0.98673594 -0.77435838 -0.6432177 -0.51982583 -0.41192015 -0.27226538 -0.05605766400000001 0.13796641 0.23100576 0.31626444 0.41062443 0.43363741 0.49259458 0.59999188 0.55345609 0.51879557 0.68588751 0.67408309 0.44879707 0.5100268 0.65705181 0.45500634
-0.4369491 -0.65324945 -0.96135679 -0.79907716 -0.63679183 -0.95354458 -1.1025198999999999 -1.0039662 -1.1739966999999998 -1.2370328000000002 -0.9487888000000001 -0.92823331 -1.2255539 -1.3603722 -1.3778245 -1.4315548999999999 -1.4836421 -1.6023813999999998 -1.6619765 -1.5269133999999998 -1.5467346000000002 -1.8137025000000002 -1.8438218000000002 -1.6124578999999999 -1.5420541 -1.5475048999999999 -1.3193131999999999 -0.98673594 -0.77435838 -0.6432177 -0.51982583 -0.41192015 -0.27226538 -0.05605766400000001 0.13796641 0.23100576 0.31626444 0.41062443 0.43363741 0.49259458 0.59999188 0.55345609 0.51879557 0.68588751 0.67408309 0.44879707 0.5100268 0.65705181 0.45500634 0.31711476
-0.65324945 -0.96135679 -0.79907716 -0.63679183 -0.95354458 -1.1025198999999999 -1.0039662 -1.1739966999999998 -1.2370328000000002 -0.9487888000000001 -0.92823331 -1.2255539 -1.3603722 -1.3778245 -1.4315548999999999 -1.4836421 -1.6023813999999998 -1.6619765 -1.5269133999999998 -1.5467346000000002 -1.8137025000000002 -1.8438218000000002 -1.6124578999999999 -1.5420541 -1.5475048999999999 -1.3193131999999999 -0.98673594 -0.77435838 -0.6432177 -0.51982583 -0.41192015 -0.27226538 -0.05605766400000001 0.13796641 0.23100576 0.31626444 0.41062443 0.43363741 0.49259458 0.59999188 0.55345609 0.51879557 0.68588751 0.67408309 0.44879707 0.5100268 0.65705181 0.45500634 0.31711476 0.46951114
-0.96135679 -0.79907716 -0.63679183 -0.95354458 -1.1025198999999999 -1.0039662 -1.1739966999999998 -1.2370328000000002 -0.9487888000000001 -0.92823331 -1.2255539 -1.3603722 -1.3778245 -1.4315548999999999 -1.4836421 -1.6023813999999998 -1.6619765 -1.5269133999999998 -1.5467346000000002 -1.8137025000000002 -1.8438218000000002 -1.6124578999999999 -1.5420541 -1.5475048999999999 -1.3193131999999999 -0.98673594 -0.77435838 -0.6432177 -0.51982583 -0.41192015 -0.27226538 -0.05605766400000001 0.13796641 0.23100576 0.31626444 0.41062443 0.43363741 0.49259458 0.59999188 0.55345609 0.51879557 0.68588751 0.67408309 0.44879707 0.5100268 0.65705181 0.45500634 0.31711476 0.46951114 0.45564687
-0.79907716 -0.63679183 -0.95354458 -1.1025198999999999 -1.0039662 -1.1739966999999998 -1.2370328000000002 -0.9487888000000001 -0.92823331 -1.2255539 -1.3603722 -1.3778245 -1.4315548999999999 -1.4836421 -1.6023813999999998 -1.6619765 -1.5269133999999998 -1.5467346000000002 -1.8137025000000002 -1.8438218000000002 -1.6124578999999999 -1.5420541 -1.5475048999999999 -1.3193131999999999 -0.98673594 -0.77435838 -0.6432177 -0.51982583 -0.41192015 -0.27226538 -0.05605766400000001 0.13796641 0.23100576 0.31626444 0.41062443 0.43363741 0.49259458 0.59999188 0.55345609 0.51879557 0.68588751 0.67408309 0.44879707 0.5100268 0.65705181 0.45500634 0.31711476 0.46951114 0.45564687 0.31199796
-0.63679183 -0.95354458 -1.1025198999999999 -1.0039662 -1.1739966999999998 -1.2370328000000002 -0.9487888000000001 -0.92823331 -1.2255539 -1.3603722 -1.3778245 -1.4315548999999999 -1.4836421 -1.6023813999999998 -1.6619765 -1.5269133999999998 -1.5467346000000002 -1.8137025000000002 -1.8438218000000002 -1.6124578999999999 -1.5420541 -1.5475048999999999 -1.3193131999999999 -0.98673594 -0.77435838 -0.6432177 -0.51982583 -0.41192015 -0.27226538 -0.05605766400000001 0.13796641 0.23100576 0.31626444 0.41062443 0.43363741 0.49259458 0.59999188 0.55345609 0.51879557 0.68588751 0.67408309 0.44879707 0.5100268 0.65705181 0.45500634 0.31711476 0.46951114 0.45564687 0.31199796 0.39554644
-0.95354458 -1.1025198999999999 -1.0039662 -1.1739966999999998 -1.2370328000000002 -0.9487888000000001 -0.92823331 -1.2255539 -1.3603722 -1.3778245 -1.4315548999999999 -1.4836421 -1.6023813999999998 -1.6619765 -1.5269133999999998 -1.5467346000000002 -1.8137025000000002 -1.8438218000000002 -1.6124578999999999 -1.5420541 -1.5475048999999999 -1.3193131999999999 -0.98673594 -0.77435838 -0.6432177 -0.51982583 -0.41192015 -0.27226538 -0.05605766400000001 0.13796641 0.23100576 0.31626444 0.41062443 0.43363741 0.49259458 0.59999188 0.55345609 0.51879557 0.68588751 0.67408309 0.44879707 0.5100268 0.65705181 0.45500634 0.31711476 0.46951114 0.45564687 0.31199796 0.39554644 0.50722803
-1.1025198999999999 -1.0039662 -1.1739966999999998 -1.2370328000000002 -0.9487888000000001 -0.92823331 -1.2255539 -1.3603722 -1.3778245 -1.4315548999999999 -1.4836421 -1.6023813999999998 -1.6619765 -1.5269133999999998 -1.5467346000000002 -1.8137025000000002 -1.8438218000000002 -1.6124578999999999 -1.5420541 -1.5475048999999999 -1.3193131999999999 -0.98673594 -0.77435838 -0.6432177 -0.51982583 -0.41192015 -0.27226538 -0.05605766400000001 0.13796641 0.23100576 0.31626444 0.41062443 0.43363741 0.49259458 0.59999188 0.55345609 0.51879557 0.68588751 0.67408309 0.44879707 0.5100268 0.65705181 0.45500634 0.31711476 0.46951114 0.45564687 0.31199796 0.39554644 0.50722803 0.45970314
-1.0039662 -1.1739966999999998 -1.2370328000000002 -0.9487888000000001 -0.92823331 -1.2255539 -1.3603722 -1.3778245 -1.4315548999999999 -1.4836421 -1.6023813999999998 -1.6619765 -1.5269133999999998 -1.5467346000000002 -1.8137025000000002 -1.8438218000000002 -1.6124578999999999 -1.5420541 -1.5475048999999999 -1.3193131999999999 -0.98673594 -0.77435838 -0.6432177 -0.51982583 -0.41192015 -0.27226538 -0.05605766400000001 0.13796641 0.23100576 0.31626444 0.41062443 0.43363741 0.49259458 0.59999188 0.55345609 0.51879557 0.68588751 0.67408309 0.44879707 0.5100268 0.65705181 0.45500634 0.31711476 0.46951114 0.45564687 0.31199796 0.39554644 0.50722803 0.45970314 0.46914966
-1.1739966999999998 -1.2370328000000002 -0.9487888000000001 -0.92823331 -1.2255539 -1.3603722 -1.3778245 -1.4315548999999999 -1.4836421 -1.6023813999999998 -1.6619765 -1.5269133999999998 -1.5467346000000002 -1.8137025000000002 -1.8438218000000002 -1.6124578999999999 -1.5420541 -1.5475048999999999 -1.3193131999999999 -0.98673594 -0.77435838 -0.6432177 -0.51982583 -0.41192015 -0.27226538 -0.05605766400000001 0.13796641 0.23100576 0.31626444 0.41062443 0.43363741 0.49259458 0.59999188 0.55345609 0.51879557 0.68588751 0.67408309 0.44879707 0.5100268 0.65705181 0.45500634 0.31711476 0.46951114 0.45564687 0.31199796 0.39554644 0.50722803 0.45970314 0.46914966 0.5511581999999999
-1.2370328000000002 -0.9487888000000001 -0.92823331 -1.2255539 -1.3603722 -1.3778245 -1.4315548999999999 -1.4836421 -1.6023813999999998 -1.6619765 -1.5269133999999998 -1.5467346000000002 -1.8137025000000002 -1.8438218000000002 -1.6124578999999999 -1.5420541 -1.5475048999999999 -1.3193131999999999 -0.98673594 -0.77435838 -0.6432177 -0.51982583 -0.41192015 -0.27226538 -0.05605766400000001 0.13796641 0.23100576 0.31626444 0.41062443 0.43363741 0.49259458 0.59999188 0.55345609 0.51879557 0.68588751 0.67408309 0.44879707 0.5100268 0.65705181 0.45500634 0.31711476 0.46951114 0.45564687 0.31199796 0.39554644 0.50722803 0.45970314 0.46914966 0.5511581999999999 0.51314969
-0.9487888000000001 -0.92823331 -1.2255539 -1.3603722 -1.3778245 -1.4315548999999999 -1.4836421 -1.6023813999999998 -1.6619765 -1.5269133999999998 -1.5467346000000002 -1.8137025000000002 -1.8438218000000002 -1.6124578999999999 -1.5420541 -1.5475048999999999 -1.3193131999999999 -0.98673594 -0.77435838 -0.6432177 -0.51982583 -0.41192015 -0.27226538 -0.05605766400000001 0.13796641 0.23100576 0.31626444 0.41062443 0.43363741 0.49259458 0.59999188 0.55345609 0.51879557 0.68588751 0.67408309 0.44879707 0.5100268 0.65705181 0.45500634 0.31711476 0.46951114 0.45564687 0.31199796 0.39554644 0.50722803 0.45970314 0.46914966 0.5511581999999999 0.51314969 0.41825968
-0.92823331 -1.2255539 -1.3603722 -1.3778245 -1.4315548999999999 -1.4836421 -1.6023813999999998 -1.6619765 -1.5269133999999998 -1.5467346000000002 -1.8137025000000002 -1.8438218000000002 -1.6124578999999999 -1.5420541 -1.5475048999999999 -1.3193131999999999 -0.98673594 -0.77435838 -0.6432177 -0.51982583 -0.41192015 -0.27226538 -0.05605766400000001 0.13796641 0.23100576 0.31626444 0.41062443 0.43363741 0.49259458 0.59999188 0.55345609 0.51879557 0.68588751 0.67408309 0.44879707 0.5100268 0.65705181 0.45500634 0.31711476 0.46951114 0.45564687 0.31199796 0.39554644 0.50722803 0.45970314 0.46914966 0.5511581999999999 0.51314969 0.41825968 0.41703328
-1.2255539 -1.3603722 -1.3778245 -1.4315548999999999 -1.4836421 -1.6023813999999998 -1.6619765 -1.5269133999999998 -1.5467346000000002 -1.8137025000000002 -1.8438218000000002 -1.6124578999999999 -1.5420541 -1.5475048999999999 -1.3193131999999999 -0.98673594 -0.77435838 -0.6432177 -0.51982583 -0.41192015 -0.27226538 -0.05605766400000001 0.13796641 0.23100576 0.31626444 0.41062443 0.43363741 0.49259458 0.59999188 0.55345609 0.51879557 0.68588751 0.67408309 0.44879707 0.5100268 0.65705181 0.45500634 0.31711476 0.46951114 0.45564687 0.31199796 0.39554644 0.50722803 0.45970314 0.46914966 0.5511581999999999 0.51314969 0.41825968 0.41703328 0.46711099999999994
-1.3603722 -1.3778245 -1.4315548999999999 -1.4836421 -1.6023813999999998 -1.6619765 -1.5269133999999998 -1.5467346000000002 -1.8137025000000002 -1.8438218000000002 -1.6124578999999999 -1.5420541 -1.5475048999999999 -1.3193131999999999 -0.98673594 -0.77435838 -0.6432177 -0.51982583 -0.41192015 -0.27226538 -0.05605766400000001 0.13796641 0.23100576 0.31626444 0.41062443 0.43363741 0.49259458 0.59999188 0.55345609 0.51879557 0.68588751 0.67408309 0.44879707 0.5100268 0.65705181 0.45500634 0.31711476 0.46951114 0.45564687 0.31199796 0.39554644 0.50722803 0.45970314 0.46914966 0.5511581999999999 0.51314969 0.41825968 0.41703328 0.46711099999999994 0.55602072
-1.3778245 -1.4315548999999999 -1.4836421 -1.6023813999999998 -1.6619765 -1.5269133999999998 -1.5467346000000002 -1.8137025000000002 -1.8438218000000002 -1.6124578999999999 -1.5420541 -1.5475048999999999 -1.3193131999999999 -0.98673594 -0.77435838 -0.6432177 -0.51982583 -0.41192015 -0.27226538 -0.05605766400000001 0.13796641 0.23100576 0.31626444 0.41062443 0.43363741 0.49259458 0.59999188 0.55345609 0.51879557 0.68588751 0.67408309 0.44879707 0.5100268 0.65705181 0.45500634 0.31711476 0.46951114 0.45564687 0.31199796 0.39554644 0.50722803 0.45970314 0.46914966 0.5511581999999999 0.51314969 0.41825968 0.41703328 0.46711099999999994 0.55602072 0.78861759
-1.4315548999999999 -1.4836421 -1.6023813999999998 -1.6619765 -1.5269133999999998 -1.5467346000000002 -1.8137025000000002 -1.8438218000000002 -1.6124578999999999 -1.5420541 -1.5475048999999999 -1.3193131999999999 -0.98673594 -0.77435838 -0.6432177 -0.51982583 -0.41192015 -0.27226538 -0.05605766400000001 0.13796641 0.23100576 0.31626444 0.41062443 0.43363741 0.49259458 0.59999188 0.55345609 0.51879557 0.68588751 0.67408309 0.44879707 0.5100268 0.65705181 0.45500634 0.31711476 0.46951114 0.45564687 0.31199796 0.39554644 0.50722803 0.45970314 0.46914966 0.5511581999999999 0.51314969 0.41825968 0.41703328 0.46711099999999994 0.55602072 0.78861759 1.015674
-1.4836421 -1.6023813999999998 -1.6619765 -1.5269133999999998 -1.5467346000000002 -1.8137025000000002 -1.8438218000000002 -1.6124578999999999 -1.5420541 -1.5475048999999999 -1.3193131999999999 -0.98673594 -0.77435838 -0.6432177 -0.51982583 -0.41192015 -0.27226538 -0.05605766400000001 0.13796641 0.23100576 0.31626444 0.41062443 0.43363741 0.49259458 0.59999188 0.55345609 0.51879557 0.68588751 0.67408309 0.44879707 0.5100268 0.65705181 0.45500634 0.31711476 0.46951114 0.45564687 0.31199796 0.39554644 0.50722803 0.45970314 0.46914966 0.5511581999999999 0.51314969 0.41825968 0.41703328 0.46711099999999994 0.55602072 0.78861759 1.015674 0.92311943
-1.6023813999999998 -1.6619765 -1.5269133999999998 -1.5467346000000002 -1.8137025000000002 -1.8438218000000002 -1.6124578999999999 -1.5420541 -1.5475048999999999 -1.3193131999999999 -0.98673594 -0.77435838 -0.6432177 -0.51982583 -0.41192015 -0.27226538 -0.05605766400000001 0.13796641 0.23100576 0.31626444 0.41062443 0.43363741 0.49259458 0.59999188 0.55345609 0.51879557 0.68588751 0.67408309 0.44879707 0.5100268 0.65705181 0.45500634 0.31711476 0.46951114 0.45564687 0.31199796 0.39554644 0.50722803 0.45970314 0.46914966 0.5511581999999999 0.51314969 0.41825968 0.41703328 0.46711099999999994 0.55602072 0.78861759 1.015674 0.92311943 0.69248872
-1.6619765 -1.5269133999999998 -1.5467346000000002 -1.8137025000000002 -1.8438218000000002 -1.6124578999999999 -1.5420541 -1.5475048999999999 -1.3193131999999999 -0.98673594 -0.77435838 -0.6432177 -0.51982583 -0.41192015 -0.27226538 -0.05605766400000001 0.13796641 0.23100576 0.31626444 0.41062443 0.43363741 0.49259458 0.59999188 0.55345609 0.51879557 0.68588751 0.67408309 0.44879707 0.5100268 0.65705181 0.45500634 0.31711476 0.46951114 0.45564687 0.31199796 0.39554644 0.50722803 0.45970314 0.46914966 0.5511581999999999 0.51314969 0.41825968 0.41703328 0.46711099999999994 0.55602072 0.78861759 1.015674 0.92311943 0.69248872 0.72154325
-1.5269133999999998 -1.5467346000000002 -1.8137025000000002 -1.8438218000000002 -1.6124578999999999 -1.5420541 -1.5475048999999999 -1.3193131999999999 -0.98673594 -0.77435838 -0.6432177 -0.51982583 -0.41192015 -0.27226538 -0.05605766400000001 0.13796641 0.23100576 0.31626444 0.41062443 0.43363741 0.49259458 0.59999188 0.55345609 0.51879557 0.68588751 0.67408309 0.44879707 0.5100268 0.65705181 0.45500634 0.31711476 0.46951114 0.45564687 0.31199796 0.39554644 0.50722803 0.45970314 0.46914966 0.5511581999999999 0.51314969 0.41825968 0.41703328 0.46711099999999994 0.55602072 0.78861759 1.015674 0.92311943 0.69248872 0.72154325 0.82763507
-1.5467346000000002 -1.8137025000000002 -1.8438218000000002 -1.6124578999999999 -1.5420541 -1.5475048999999999 -1.3193131999999999 -0.98673594 -0.77435838 -0.6432177 -0.51982583 -0.41192015 -0.27226538 -0.05605766400000001 0.13796641 0.23100576 0.31626444 0.41062443 0.43363741 0.49259458 0.59999188 0.55345609 0.51879557 0.68588751 0.67408309 0.44879707 0.5100268 0.65705181 0.45500634 0.31711476 0.46951114 0.45564687 0.31199796 0.39554644 0.50722803 0.45970314 0.46914966 0.5511581999999999 0.51314969 0.41825968 0.41703328 0.46711099999999994 0.55602072 0.78861759 1.015674 0.92311943 0.69248872 0.72154325 0.82763507 0.72856657
-1.8137025000000002 -1.8438218000000002 -1.6124578999999999 -1.5420541 -1.5475048999999999 -1.3193131999999999 -0.98673594 -0.77435838 -0.6432177 -0.51982583 -0.41192015 -0.27226538 -0.05605766400000001 0.13796641 0.23100576 0.31626444 0.41062443 0.43363741 0.49259458 0.59999188 0.55345609 0.51879557 0.68588751 0.67408309 0.44879707 0.5100268 0.65705181 0.45500634 0.31711476 0.46951114 0.45564687 0.31199796 0.39554644 0.50722803 0.45970314 0.46914966 0.5511581999999999 0.51314969 0.41825968 0.41703328 0.46711099999999994 0.55602072 0.78861759 1.015674 0.92311943 0.69248872 0.72154325 0.82763507 0.72856657 0.63287419
-1.8438218000000002 -1.6124578999999999 -1.5420541 -1.5475048999999999 -1.3193131999999999 -0.98673594 -0.77435838 -0.6432177 -0.51982583 -0.41192015 -0.27226538 -0.05605766400000001 0.13796641 0.23100576 0.31626444 0.41062443 0.43363741 0.49259458 0.59999188 0.55345609 0.51879557 0.68588751 0.67408309 0.44879707 0.5100268 0.65705181 0.45500634 0.31711476 0.46951114 0.45564687 0.31199796 0.39554644 0.50722803 0.45970314 0.46914966 0.5511581999999999 0.51314969 0.41825968 0.41703328 0.46711099999999994 0.55602072 0.78861759 1.015674 0.92311943 0.69248872 0.72154325 0.82763507 0.72856657 0.63287419 0.67349753
-1.6124578999999999 -1.5420541 -1.5475048999999999 -1.3193131999999999 -0.98673594 -0.77435838 -0.6432177 -0.51982583 -0.41192015 -0.27226538 -0.05605766400000001 0.13796641 0.23100576 0.31626444 0.41062443 0.43363741 0.49259458 0.59999188 0.55345609 0.51879557 0.68588751 0.67408309 0.44879707 0.5100268 0.65705181 0.45500634 0.31711476 0.46951114 0.45564687 0.31199796 0.39554644 0.50722803 0.45970314 0.46914966 0.5511581999999999 0.51314969 0.41825968 0.41703328 0.46711099999999994 0.55602072 0.78861759 1.015674 0.92311943 0.69248872 0.72154325 0.82763507 0.72856657 0.63287419 0.67349753 0.75655298
-1.5420541 -1.5475048999999999 -1.3193131999999999 -0.98673594 -0.77435838 -0.6432177 -0.51982583 -0.41192015 -0.27226538 -0.05605766400000001 0.13796641 0.23100576 0.31626444 0.41062443 0.43363741 0.49259458 0.59999188 0.55345609 0.51879557 0.68588751 0.67408309 0.44879707 0.5100268 0.65705181 0.45500634 0.31711476 0.46951114 0.45564687 0.31199796 0.39554644 0.50722803 0.45970314 0.46914966 0.5511581999999999 0.51314969 0.41825968 0.41703328 0.46711099999999994 0.55602072 0.78861759 1.015674 0.92311943 0.69248872 0.72154325 0.82763507 0.72856657 0.63287419 0.67349753 0.75655298 0.85334346
-1.5475048999999999 -1.3193131999999999 -0.98673594 -0.77435838 -0.6432177 -0.51982583 -0.41192015 -0.27226538 -0.05605766400000001 0.13796641 0.23100576 0.31626444 0.41062443 0.43363741 0.49259458 0.59999188 0.55345609 0.51879557 0.68588751 0.67408309 0.44879707 0.5100268 0.65705181 0.45500634 0.31711476 0.46951114 0.45564687 0.31199796 0.39554644 0.50722803 0.45970314 0.46914966 0.5511581999999999 0.51314969 0.41825968 0.41703328 0.46711099999999994 0.55602072 0.78861759 1.015674 0.92311943 0.69248872 0.72154325 0.82763507 0.72856657 0.63287419 0.67349753 0.75655298 0.85334346 0.75985986
-1.3193131999999999 -0.98673594 -0.77435838 -0.6432177 -0.51982583 -0.41192015 -0.27226538 -0.05605766400000001 0.13796641 0.23100576 0.31626444 0.41062443 0.43363741 0.49259458 0.59999188 0.55345609 0.51879557 0.68588751 0.67408309 0.44879707 0.5100268 0.65705181 0.45500634 0.31711476 0.46951114 0.45564687 0.31199796 0.39554644 0.50722803 0.45970314 0.46914966 0.5511581999999999 0.51314969 0.41825968 0.41703328 0.46711099999999994 0.55602072 0.78861759 1.015674 0.92311943 0.69248872 0.72154325 0.82763507 0.72856657 0.63287419 0.67349753 0.75655298 0.85334346 0.75985986 0.49322622
-0.98673594 -0.77435838 -0.6432177 -0.51982583 -0.41192015 -0.27226538 -0.05605766400000001 0.13796641 0.23100576 0.31626444 0.41062443 0.43363741 0.49259458 0.59999188 0.55345609 0.51879557 0.68588751 0.67408309 0.44879707 0.5100268 0.65705181 0.45500634 0.31711476 0.46951114 0.45564687 0.31199796 0.39554644 0.50722803 0.45970314 0.46914966 0.5511581999999999 0.51314969 0.41825968 0.41703328 0.46711099999999994 0.55602072 0.78861759 1.015674 0.92311943 0.69248872 0.72154325 0.82763507 0.72856657 0.63287419 0.67349753 0.75655298 0.85334346 0.75985986 0.49322622 0.58169929
-0.77435838 -0.6432177 -0.51982583 -0.41192015 -0.27226538 -0.05605766400000001 0.13796641 0.23100576 0.31626444 0.41062443 0.43363741 0.49259458 0.59999188 0.55345609 0.51879557 0.68588751 0.67408309 0.44879707 0.5100268 0.65705181 0.45500634 0.31711476 0.46951114 0.45564687 0.31199796 0.39554644 0.50722803 0.45970314 0.46914966 0.5511581999999999 0.51314969 0.41825968 0.41703328 0.46711099999999994 0.55602072 0.78861759 1.015674 0.92311943 0.69248872 0.72154325 0.82763507 0.72856657 0.63287419 0.67349753 0.75655298 0.85334346 0.75985986 0.49322622 0.58169929 0.83666822
-0.6432177 -0.51982583 -0.41192015 -0.27226538 -0.05605766400000001 0.13796641 0.23100576 0.31626444 0.41062443 0.43363741 0.49259458 0.59999188 0.55345609 0.51879557 0.68588751 0.67408309 0.44879707 0.5100268 0.65705181 0.45500634 0.31711476 0.46951114 0.45564687 0.31199796 0.39554644 0.50722803 0.45970314 0.46914966 0.5511581999999999 0.51314969 0.41825968 0.41703328 0.46711099999999994 0.55602072 0.78861759 1.015674 0.92311943 0.69248872 0.72154325 0.82763507 0.72856657 0.63287419 0.67349753 0.75655298 0.85334346 0.75985986 0.49322622 0.58169929 0.83666822 0.42748505
