0.59782907 1.2574276000000002 2.7584957 4.0869911 2.4522112999999996 0.81663588 -0.77634288 -0.50396426 0.58736328 0.18173346 0.1138058 -0.019752933 0.30257219 -0.35718866 -0.72212577 -0.73469728 -1.0181106 -0.68482885 -0.92543325 -1.1036499 -1.2605537 -1.0172755 -1.1808423000000001 -1.7259903000000003 -1.4323945 -1.9682875 -1.5941341 -1.478636 -2.3515126 -1.7501782 -1.9622735 -1.8714837 -1.5807111 -1.5556297 -1.1898148000000002 -1.0205255 -0.40816705 -0.09337209 0.26725716 0.45376032 0.34082814 1.0665267 1.0429154 0.84210931 0.94017243 0.98393905 0.97699854 0.81587327 0.7779003000000001 0.81860661
1.2574276000000002 2.7584957 4.0869911 2.4522112999999996 0.81663588 -0.77634288 -0.50396426 0.58736328 0.18173346 0.1138058 -0.019752933 0.30257219 -0.35718866 -0.72212577 -0.73469728 -1.0181106 -0.68482885 -0.92543325 -1.1036499 -1.2605537 -1.0172755 -1.1808423000000001 -1.7259903000000003 -1.4323945 -1.9682875 -1.5941341 -1.478636 -2.3515126 -1.7501782 -1.9622735 -1.8714837 -1.5807111 -1.5556297 -1.1898148000000002 -1.0205255 -0.40816705 -0.09337209 0.26725716 0.45376032 0.34082814 1.0665267 1.0429154 0.84210931 0.94017243 0.98393905 0.97699854 0.81587327 0.7779003000000001 0.81860661 0.47230255
2.7584957 4.0869911 2.4522112999999996 0.81663588 -0.77634288 -0.50396426 0.58736328 0.18173346 0.1138058 -0.019752933 0.30257219 -0.35718866 -0.72212577 -0.73469728 -1.0181106 -0.68482885 -0.92543325 -1.1036499 -1.2605537 -1.0172755 -1.1808423000000001 -1.7259903000000003 -1.4323945 -1.9682875 -1.5941341 -1.478636 -2.3515126 -1.7501782 -1.9622735 -1.8714837 -1.5807111 -1.5556297 -1.1898148000000002 -1.0205255 -0.40816705 -0.09337209 0.26725716 0.45376032 0.34082814 1.0665267 1.0429154 0.84210931 0.94017243 0.98393905 0.97699854 0.81587327 0.7779003000000001 0.81860661 0.47230255 0.54607445
4.0869911 2.4522112999999996 0.81663588 -0.77634288 -0.50396426 0.58736328 0.18173346 0.1138058 -0.019752933 0.30257219 -0.35718866 -0.72212577 -0.73469728 -1.0181106 -0.68482885 -0.92543325 -1.1036499 -1.2605537 -1.0172755 -1.1808423000000001 -1.7259903000000003 -1.4323945 -1.9682875 -1.5941341 -1.478636 -2.3515126 -1.7501782 -1.9622735 -1.8714837 -1.5807111 -1.5556297 -1.1898148000000002 -1.0205255 -0.40816705 -0.09337209 0.26725716 0.45376032 0.34082814 1.0665267 1.0429154 0.84210931 0.94017243 0.98393905 0.97699854 0.81587327 0.7779003000000001 0.81860661 0.47230255 0.54607445 0.71132841
2.4522112999999996 0.81663588 -0.77634288 -0.50396426 0.58736328 0.18173346 0.1138058 -0.019752933 0.30257219 -0.35718866 -0.72212577 -0.73469728 -1.0181106 -0.68482885 -0.92543325 -1.1036499 -1.2605537 -1.0172755 -1.1808423000000001 -1.7259903000000003 -1.4323945 -1.9682875 -1.5941341 -1.478636 -2.3515126 -1.7501782 -1.9622735 -1.8714837 -1.5807111 -1.5556297 -1.1898148000000002 -1.0205255 -0.40816705 -0.09337209 0.26725716 0.45376032 0.34082814 1.0665267 1.0429154 0.84210931 0.94017243 0.98393905 0.97699854 0.81587327 0.7779003000000001 0.81860661 0.47230255 0.54607445 0.71132841 0.34545408
0.81663588 -0.77634288 -0.50396426 0.58736328 0.18173346 0.1138058 -0.019752933 0.30257219 -0.35718866 -0.72212577 -0.73469728 -1.0181106 -0.68482885 -0.92543325 -1.1036499 -1.2605537 -1.0172755 -1.1808423000000001 -1.7259903000000003 -1.4323945 -1.9682875 -1.5941341 -1.478636 -2.3515126 -1.7501782 -1.9622735 -1.8714837 -1.5807111 -1.5556297 -1.1898148000000002 -1.0205255 -0.40816705 -0.09337209 0.26725716 0.45376032 0.34082814 1.0665267 1.0429154 0.84210931 0.94017243 0.98393905 0.97699854 0.81587327 0.7779003000000001 0.81860661 0.47230255 0.54607445 0.71132841 0.34545408 0.59041937
-0.77634288 -0.50396426 0.58736328 0.18173346 0.1138058 -0.019752933 0.30257219 -0.35718866 -0.72212577 -0.73469728 -1.0181106 -0.68482885 -0.92543325 -1.1036499 -1.2605537 -1.0172755 -1.1808423000000001 -1.7259903000000003 -1.4323945 -1.9682875 -1.5941341 -1.478636 -2.3515126 -1.7501782 -1.9622735 -1.8714837 -1.5807111 -1.5556297 -1.1898148000000002 -1.0205255 -0.40816705 -0.09337209 0.26725716 0.45376032 0.34082814 1.0665267 1.0429154 0.84210931 0.94017243 0.98393905 0.97699854 0.81587327 0.7779003000000001 0.81860661 0.47230255 0.54607445 0.71132841 0.34545408 0.59041937 0.45653720000000003
-0.50396426 0.58736328 0.18173346 0.1138058 -0.019752933 0.30257219 -0.35718866 -0.72212577 -0.73469728 -1.0181106 -0.68482885 -0.92543325 -1.1036499 -1.2605537 -1.0172755 -1.1808423000000001 -1.7259903000000003 -1.4323945 -1.9682875 -1.5941341 -1.478636 -2.3515126 -1.7501782 -1.9622735 -1.8714837 -1.5807111 -1.5556297 -1.1898148000000002 -1.0205255 -0.40816705 -0.09337209 0.26725716 0.45376032 0.34082814 1.0665267 1.0429154 0.84210931 0.94017243 0.98393905 0.97699854 0.81587327 0.7779003000000001 0.81860661 0.47230255 0.54607445 0.71132841 0.34545408 0.59041937 0.45653720000000003 0.37054491
0.58736328 0.18173346 0.1138058 -0.019752933 0.30257219 -0.35718866 -0.72212577 -0.73469728 -1.0181106 -0.68482885 -0.92543325 -1.1036499 -1.2605537 -1.0172755 -1.1808423000000001 -1.7259903000000003 -1.4323945 -1.9682875 -1.5941341 -1.478636 -2.3515126 -1.7501782 -1.9622735 -1.8714837 -1.5807111 -1.5556297 -1.1898148000000002 -1.0205255 -0.40816705 -0.09337209 0.26725716 0.45376032 0.34082814 1.0665267 1.0429154 0.84210931 0.94017243 0.98393905 0.97699854 0.81587327 0.7779003000000001 0.81860661 0.47230255 0.54607445 0.71132841 0.34545408 0.59041937 0.45653720000000003 0.37054491 0.85178703
0.18173346 0.1138058 -0.019752933 0.30257219 -0.35718866 -0.72212577 -0.73469728 -1.0181106 -0.68482885 -0.92543325 -1.1036499 -1.2605537 -1.0172755 -1.1808423000000001 -1.7259903000000003 -1.4323945 -1.9682875 -1.5941341 -1.478636 -2.3515126 -1.7501782 -1.9622735 -1.8714837 -1.5807111 -1.5556297 -1.1898148000000002 -1.0205255 -0.40816705 -0.09337209 0.26725716 0.45376032 0.34082814 1.0665267 1.0429154 0.84210931 0.94017243 0.98393905 0.97699854 0.81587327 0.7779003000000001 0.81860661 0.47230255 0.54607445 0.71132841 0.34545408 0.59041937 0.45653720000000003 0.37054491 0.85178703 0.22274349
0.1138058 -0.019752933 0.30257219 -0.35718866 -0.72212577 -0.73469728 -1.0181106 -0.68482885 -0.92543325 -1.1036499 -1.2605537 -1.0172755 -1.1808423000000001 -1.7259903000000003 -1.4323945 -1.9682875 -1.5941341 -1.478636 -2.3515126 -1.7501782 -1.9622735 -1.8714837 -1.5807111 -1.5556297 -1.1898148000000002 -1.0205255 -0.40816705 -0.09337209 0.26725716 0.45376032 0.34082814 1.0665267 1.0429154 0.84210931 0.94017243 0.98393905 0.97699854 0.81587327 0.7779003000000001 0.81860661 0.47230255 0.54607445 0.71132841 0.34545408 0.59041937 0.45653720000000003 0.37054491 0.85178703 0.22274349 0.39840572
-0.019752933 0.30257219 -0.35718866 -0.72212577 -0.73469728 -1.0181106 -0.68482885 -0.92543325 -1.1036499 -1.2605537 -1.0172755 -1.1808423000000001 -1.7259903000000003 -1.4323945 -1.9682875 -1.5941341 -1.478636 -2.3515126 -1.7501782 -1.9622735 -1.8714837 -1.5807111 -1.5556297 -1.1898148000000002 -1.0205255 -0.40816705 -0.09337209 0.26725716 0.45376032 0.34082814 1.0665267 1.0429154 0.84210931 0.94017243 0.98393905 0.97699854 0.81587327 0.7779003000000001 0.81860661 0.47230255 0.54607445 0.71132841 0.34545408 0.59041937 0.45653720000000003 0.37054491 0.85178703 0.22274349 0.39840572 0.28460078
0.30257219 -0.35718866 -0.72212577 -0.73469728 -1.0181106 -0.68482885 -0.92543325 -1.1036499 -1.2605537 -1.0172755 -1.1808423000000001 -1.7259903000000003 -1.4323945 -1.9682875 -1.5941341 -1.478636 -2.3515126 -1.7501782 -1.9622735 -1.8714837 -1.5807111 -1.5556297 -1.1898148000000002 -1.0205255 -0.40816705 -0.09337209 0.26725716 0.45376032 0.34082814 1.0665267 1.0429154 0.84210931 0.94017243 0.98393905 0.97699854 0.81587327 0.7779003000000001 0.81860661 0.47230255 0.54607445 0.71132841 0.34545408 0.59041937 0.45653720000000003 0.37054491 0.85178703 0.22274349 0.39840572 0.28460078 0.49736514
-0.35718866 -0.72212577 -0.73469728 -1.0181106 -0.68482885 -0.92543325 -1.1036499 -1.2605537 -1.0172755 -1.1808423000000001 -1.7259903000000003 -1.4323945 -1.9682875 -1.5941341 -1.478636 -2.3515126 -1.7501782 -1.9622735 -1.8714837 -1.5807111 -1.5556297 -1.1898148000000002 -1.0205255 -0.40816705 -0.09337209 0.26725716 0.45376032 0.34082814 1.0665267 1.0429154 0.84210931 0.94017243 0.98393905 0.97699854 0.81587327 0.7779003000000001 0.81860661 0.47230255 0.54607445 0.71132841 0.34545408 0.59041937 0.45653720000000003 0.37054491 0.85178703 0.22274349 0.39840572 0.28460078 0.49736514 0.70120432
-0.72212577 -0.73469728 -1.0181106 -0.68482885 -0.92543325 -1.1036499 -1.2605537 -1.0172755 -1.1808423000000001 -1.7259903000000003 -1.4323945 -1.9682875 -1.5941341 -1.478636 -2.3515126 -1.7501782 -1.9622735 -1.8714837 -1.5807111 -1.5556297 -1.1898148000000002 -1.0205255 -0.40816705 -0.09337209 0.26725716 0.45376032 0.34082814 1.0665267 1.0429154 0.84210931 0.94017243 0.98393905 0.97699854 0.81587327 0.7779003000000001 0.81860661 0.47230255 0.54607445 0.71132841 0.34545408 0.59041937 0.45653720000000003 0.37054491 0.85178703 0.22274349 0.39840572 0.28460078 0.49736514 0.70120432 0.075299251
-0.73469728 -1.0181106 -0.68482885 -0.92543325 -1.1036499 -1.2605537 -1.0172755 -1.1808423000000001 -1.7259903000000003 -1.4323945 -1.9682875 -1.5941341 -1.478636 -2.3515126 -1.7501782 -1.9622735 -1.8714837 -1.5807111 -1.5556297 -1.1898148000000002 -1.0205255 -0.40816705 -0.09337209 0.26725716 0.45376032 0.34082814 1.0665267 1.0429154 0.84210931 0.94017243 0.98393905 0.97699854 0.81587327 0.7779003000000001 0.81860661 0.47230255 0.54607445 0.71132841 0.34545408 0.59041937 0.45653720000000003 0.37054491 0.85178703 0.22274349 0.39840572 0.28460078 0.49736514 0.70120432 0.075299251 0.35071242
-1.0181106 -0.68482885 -0.92543325 -1.1036499 -1.2605537 -1.0172755 -1.1808423000000001 -1.7259903000000003 -1.4323945 -1.9682875 -1.5941341 -1.478636 -2.3515126 -1.7501782 -1.9622735 -1.8714837 -1.5807111 -1.5556297 -1.1898148000000002 -1.0205255 -0.40816705 -0.09337209 0.26725716 0.45376032 0.34082814 1.0665267 1.0429154 0.84210931 0.94017243 0.98393905 0.97699854 0.81587327 0.7779003000000001 0.81860661 0.47230255 0.54607445 0.71132841 0.34545408 0.59041937 0.45653720000000003 0.37054491 0.85178703 0.22274349 0.39840572 0.28460078 0.49736514 0.70120432 0.075299251 0.35071242 0.25875233
-0.68482885 -0.92543325 -1.1036499 -1.2605537 -1.0172755 -1.1808423000000001 -1.7259903000000003 -1.4323945 -1.9682875 -1.5941341 -1.478636 -2.3515126 -1.7501782 -1.9622735 -1.8714837 -1.5807111 -1.5556297 -1.1898148000000002 -1.0205255 -0.40816705 -0.09337209 0.26725716 0.45376032 0.34082814 1.0665267 1.0429154 0.84210931 0.94017243 0.98393905 0.97699854 0.81587327 0.7779003000000001 0.81860661 0.47230255 0.54607445 0.71132841 0.34545408 0.59041937 0.45653720000000003 0.37054491 0.85178703 0.22274349 0.39840572 0.28460078 0.49736514 0.70120432 0.075299251 0.35071242 0.25875233 0.23056116
-0.92543325 -1.1036499 -1.2605537 -1.0172755 -1.1808423000000001 -1.7259903000000003 -1.4323945 -1.9682875 -1.5941341 -1.478636 -2.3515126 -1.7501782 -1.9622735 -1.8714837 -1.5807111 -1.5556297 -1.1898148000000002 -1.0205255 -0.40816705 -0.09337209 0.26725716 0.45376032 0.34082814 1.0665267 1.0429154 0.84210931 0.94017243 0.98393905 0.97699854 0.81587327 0.7779003000000001 0.81860661 0.47230255 0.54607445 0.71132841 0.34545408 0.59041937 0.45653720000000003 0.37054491 0.85178703 0.22274349 0.39840572 0.28460078 0.49736514 0.70120432 0.075299251 0.35071242 0.25875233 0.23056116 0.28877620000000004
-1.1036499 -1.2605537 -1.0172755 -1.1808423000000001 -1.7259903000000003 -1.4323945 -1.9682875 -1.5941341 -1.478636 -2.3515126 -1.7501782 -1.9622735 -1.8714837 -1.5807111 -1.5556297 -1.1898148000000002 -1.0205255 -0.40816705 -0.09337209 0.26725716 0.45376032 0.34082814 1.0665267 1.0429154 0.84210931 0.94017243 0.98393905 0.97699854 0.81587327 0.7779003000000001 0.81860661 0.47230255 0.54607445 0.71132841 0.34545408 0.59041937 0.45653720000000003 0.37054491 0.85178703 0.22274349 0.39840572 0.28460078 0.49736514 0.70120432 0.075299251 0.35071242 0.25875233 0.23056116 0.28877620000000004 0.07736689
-1.2605537 -1.0172755 -1.1808423000000001 -1.7259903000000003 -1.4323945 -1.9682875 -1.5941341 -1.478636 -2.3515126 -1.7501782 -1.9622735 -1.8714837 -1.5807111 -1.5556297 -1.1898148000000002 -1.0205255 -0.40816705 -0.09337209 0.26725716 0.45376032 0.34082814 1.0665267 1.0429154 0.84210931 0.94017243 0.98393905 0.97699854 0.81587327 0.7779003000000001 0.81860661 0.47230255 0.54607445 0.71132841 0.34545408 0.59041937 0.45653720000000003 0.37054491 0.85178703 0.22274349 0.39840572 0.28460078 0.49736514 0.70120432 0.075299251 0.35071242 0.25875233 0.23056116 0.28877620000000004 0.07736689 0.23689685
-1.0172755 -1.1808423000000001 -1.7259903000000003 -1.4323945 -1.9682875 -1.5941341 -1.478636 -2.3515126 -1.7501782 -1.9622735 -1.8714837 -1.5807111 -1.5556297 -1.1898148000000002 -1.0205255 -0.40816705 -0.09337209 0.26725716 0.45376032 0.34082814 1.0665267 1.0429154 0.84210931 0.94017243 0.98393905 0.97699854 0.81587327 0.7779003000000001 0.81860661 0.47230255 0.54607445 0.71132841 0.34545408 0.59041937 0.45653720000000003 0.37054491 0.85178703 0.22274349 0.39840572 0.28460078 0.49736514 0.70120432 0.075299251 0.35071242 0.25875233 0.23056116 0.28877620000000004 0.07736689 0.23689685 0.16692018
-1.1808423000000001 -1.7259903000000003 -1.4323945 -1.9682875 -1.5941341 -1.478636 -2.3515126 -1.7501782 -1.9622735 -1.8714837 -1.5807111 -1.5556297 -1.1898148000000002 -1.0205255 -0.40816705 -0.09337209 0.26725716 0.45376032 0.34082814 1.0665267 1.0429154 0.84210931 0.94017243 0.98393905 0.97699854 0.81587327 0.7779003000000001 0.81860661 0.47230255 0.54607445 0.71132841 0.34545408 0.59041937 0.45653720000000003 0.37054491 0.85178703 0.22274349 0.39840572 0.28460078 0.49736514 0.70120432 0.075299251 0.35071242 0.25875233 0.23056116 0.28877620000000004 0.07736689 0.23689685 0.16692018 -0.06963847299999999
-1.7259903000000003 -1.4323945 -1.9682875 -1.5941341 -1.478636 -2.3515126 -1.7501782 -1.9622735 -1.8714837 -1.5807111 -1.5556297 -1.1898148000000002 -1.0205255 -0.40816705 -0.09337209 0.26725716 0.45376032 0.34082814 1.0665267 1.0429154 0.84210931 0.94017243 0.98393905 0.97699854 0.81587327 0.7779003000000001 0.81860661 0.47230255 0.54607445 0.71132841 0.34545408 0.59041937 0.45653720000000003 0.37054491 0.85178703 0.22274349 0.39840572 0.28460078 0.49736514 0.70120432 0.075299251 0.35071242 0.25875233 0.23056116 0.28877620000000004 0.07736689 0.23689685 0.16692018 -0.06963847299999999 0.33711756
-1.4323945 -1.9682875 -1.5941341 -1.478636 -2.3515126 -1.7501782 -1.9622735 -1.8714837 -1.5807111 -1.5556297 -1.1898148000000002 -1.0205255 -0.40816705 -0.09337209 0.26725716 0.45376032 0.34082814 1.0665267 1.0429154 0.84210931 0.94017243 0.98393905 0.97699854 0.81587327 0.7779003000000001 0.81860661 0.47230255 0.54607445 0.71132841 0.34545408 0.59041937 0.45653720000000003 0.37054491 0.85178703 0.22274349 0.39840572 0.28460078 0.49736514 0.70120432 0.075299251 0.35071242 0.25875233 0.23056116 0.28877620000000004 0.07736689 0.23689685 0.16692018 -0.06963847299999999 0.33711756 0.61541185
-1.9682875 -1.5941341 -1.478636 -2.3515126 -1.7501782 -1.9622735 -1.8714837 -1.5807111 -1.5556297 -1.1898148000000002 -1.0205255 -0.40816705 -0.09337209 0.26725716 0.45376032 0.34082814 1.0665267 1.0429154 0.84210931 0.94017243 0.98393905 0.97699854 0.81587327 0.7779003000000001 0.81860661 0.47230255 0.54607445 0.71132841 0.34545408 0.59041937 0.45653720000000003 0.37054491 0.85178703 0.22274349 0.39840572 0.28460078 0.49736514 0.70120432 0.075299251 0.35071242 0.25875233 0.23056116 0.28877620000000004 0.07736689 0.23689685 0.16692018 -0.06963847299999999 0.33711756 0.61541185 0.58699084
-1.5941341 -1.478636 -2.3515126 -1.7501782 -1.9622735 -1.8714837 -1.5807111 -1.5556297 -1.1898148000000002 -1.0205255 -0.40816705 -0.09337209 0.26725716 0.45376032 0.34082814 1.0665267 1.0429154 0.84210931 0.94017243 0.98393905 0.97699854 0.81587327 0.7779003000000001 0.81860661 0.47230255 0.54607445 0.71132841 0.34545408 0.59041937 0.45653720000000003 0.37054491 0.85178703 0.22274349 0.39840572 0.28460078 0.49736514 0.70120432 0.075299251 0.35071242 0.25875233 0.23056116 0.28877620000000004 0.07736689 0.23689685 0.16692018 -0.06963847299999999 0.33711756 0.61541185 0.58699084 0.71123459
-1.478636 -2.3515126 -1.7501782 -1.9622735 -1.8714837 -1.5807111 -1.5556297 -1.1898148000000002 -1.0205255 -0.40816705 -0.09337209 0.26725716 0.45376032 0.34082814 1.0665267 1.0429154 0.84210931 0.94017243 0.98393905 0.97699854 0.81587327 0.7779003000000001 0.81860661 0.47230255 0.54607445 0.71132841 0.34545408 0.59041937 0.45653720000000003 0.37054491 0.85178703 0.22274349 0.39840572 0.28460078 0.49736514 0.70120432 0.075299251 0.35071242 0.25875233 0.23056116 0.28877620000000004 0.07736689 0.23689685 0.16692018 -0.06963847299999999 0.33711756 0.61541185 0.58699084 0.71123459 0.63711648
-2.3515126 -1.7501782 -1.9622735 -1.8714837 -1.5807111 -1.5556297 -1.1898148000000002 -1.0205255 -0.40816705 -0.09337209 0.26725716 0.45376032 0.34082814 1.0665267 1.0429154 0.84210931 0.94017243 0.98393905 0.97699854 0.81587327 0.7779003000000001 0.81860661 0.47230255 0.54607445 0.71132841 0.34545408 0.59041937 0.45653720000000003 0.37054491 0.85178703 0.22274349 0.39840572 0.28460078 0.49736514 0.70120432 0.075299251 0.35071242 0.25875233 0.23056116 0.28877620000000004 0.07736689 0.23689685 0.16692018 -0.06963847299999999 0.33711756 0.61541185 0.58699084 0.71123459 0.63711648 0.54294467
-1.7501782 -1.9622735 -1.8714837 -1.5807111 -1.5556297 -1.1898148000000002 -1.0205255 -0.40816705 -0.09337209 0.26725716 0.45376032 0.34082814 1.0665267 1.0429154 0.84210931 0.94017243 0.98393905 0.97699854 0.81587327 0.7779003000000001 0.81860661 0.47230255 0.54607445 0.71132841 0.34545408 0.59041937 0.45653720000000003 0.37054491 0.85178703 0.22274349 0.39840572 0.28460078 0.49736514 0.70120432 0.075299251 0.35071242 0.25875233 0.23056116 0.28877620000000004 0.07736689 0.23689685 0.16692018 -0.06963847299999999 0.33711756 0.61541185 0.58699084 0.71123459 0.63711648 0.54294467 0.34956668
-1.9622735 -1.8714837 -1.5807111 -1.5556297 -1.1898148000000002 -1.0205255 -0.40816705 -0.09337209 0.26725716 0.45376032 0.34082814 1.0665267 1.0429154 0.84210931 0.94017243 0.98393905 0.97699854 0.81587327 0.7779003000000001 0.81860661 0.47230255 0.54607445 0.71132841 0.34545408 0.59041937 0.45653720000000003 0.37054491 0.85178703 0.22274349 0.39840572 0.28460078 0.49736514 0.70120432 0.075299251 0.35071242 0.25875233 0.23056116 0.28877620000000004 0.07736689 0.23689685 0.16692018 -0.06963847299999999 0.33711756 0.61541185 0.58699084 0.71123459 0.63711648 0.54294467 0.34956668 0.16303043
-1.8714837 -1.5807111 -1.5556297 -1.1898148000000002 -1.0205255 -0.40816705 -0.09337209 0.26725716 0.45376032 0.34082814 1.0665267 1.0429154 0.84210931 0.94017243 0.98393905 0.97699854 0.81587327 0.7779003000000001 0.81860661 0.47230255 0.54607445 0.71132841 0.34545408 0.59041937 0.45653720000000003 0.37054491 0.85178703 0.22274349 0.39840572 0.28460078 0.49736514 0.70120432 0.075299251 0.35071242 0.25875233 0.23056116 0.28877620000000004 0.07736689 0.23689685 0.16692018 -0.06963847299999999 0.33711756 0.61541185 0.58699084 0.71123459 0.63711648 0.54294467 0.34956668 0.16303043 -0.045172582
-1.5807111 -1.5556297 -1.1898148000000002 -1.0205255 -0.40816705 -0.09337209 0.26725716 0.45376032 0.34082814 1.0665267 1.0429154 0.84210931 0.94017243 0.98393905 0.97699854 0.81587327 0.7779003000000001 0.81860661 0.47230255 0.54607445 0.71132841 0.34545408 0.59041937 0.45653720000000003 0.37054491 0.85178703 0.22274349 0.39840572 0.28460078 0.49736514 0.70120432 0.075299251 0.35071242 0.25875233 0.23056116 0.28877620000000004 0.07736689 0.23689685 0.16692018 -0.06963847299999999 0.33711756 0.61541185 0.58699084 0.71123459 0.63711648 0.54294467 0.34956668 0.16303043 -0.045172582 -0.16641273
-1.5556297 -1.1898148000000002 -1.0205255 -0.40816705 -0.09337209 0.26725716 0.45376032 0.34082814 1.0665267 1.0429154 0.84210931 0.94017243 0.98393905 0.97699854 0.81587327 0.7779003000000001 0.81860661 0.47230255 0.54607445 0.71132841 0.34545408 0.59041937 0.45653720000000003 0.37054491 0.85178703 0.22274349 0.39840572 0.28460078 0.49736514 0.70120432 0.075299251 0.35071242 0.25875233 0.23056116 0.28877620000000004 0.07736689 0.23689685 0.16692018 -0.06963847299999999 0.33711756 0.61541185 0.58699084 0.71123459 0.63711648 0.54294467 0.34956668 0.16303043 -0.045172582 -0.16641273 0.10593932
-1.1898148000000002 -1.0205255 -0.40816705 -0.09337209 0.26725716 0.45376032 0.34082814 1.0665267 1.0429154 0.84210931 0.94017243 0.98393905 0.97699854 0.81587327 0.7779003000000001 0.81860661 0.47230255 0.54607445 0.71132841 0.34545408 0.59041937 0.45653720000000003 0.37054491 0.85178703 0.22274349 0.39840572 0.28460078 0.49736514 0.70120432 0.075299251 0.35071242 0.25875233 0.23056116 0.28877620000000004 0.07736689 0.23689685 0.16692018 -0.06963847299999999 0.33711756 0.61541185 0.58699084 0.71123459 0.63711648 0.54294467 0.34956668 0.16303043 -0.045172582 -0.16641273 0.10593932 -0.15697644
-1.0205255 -0.40816705 -0.09337209 0.26725716 0.45376032 0.34082814 1.0665267 1.0429154 0.84210931 0.94017243 0.98393905 0.97699854 0.81587327 0.7779003000000001 0.81860661 0.47230255 0.54607445 0.71132841 0.34545408 0.59041937 0.45653720000000003 0.37054491 0.85178703 0.22274349 0.39840572 0.28460078 0.49736514 0.70120432 0.075299251 0.35071242 0.25875233 0.23056116 0.28877620000000004 0.07736689 0.23689685 0.16692018 -0.06963847299999999 0.33711756 0.61541185 0.58699084 0.71123459 0.63711648 0.54294467 0.34956668 0.16303043 -0.045172582 -0.16641273 0.10593932 -0.15697644 -0.026205127
-0.40816705 -0.09337209 0.26725716 0.45376032 0.34082814 1.0665267 1.0429154 0.84210931 0.94017243 0.98393905 0.97699854 0.81587327 0.7779003000000001 0.81860661 0.47230255 0.54607445 0.71132841 0.34545408 0.59041937 0.45653720000000003 0.37054491 0.85178703 0.22274349 0.39840572 0.28460078 0.49736514 0.70120432 0.075299251 0.35071242 0.25875233 0.23056116 0.28877620000000004 0.07736689 0.23689685 0.16692018 -0.06963847299999999 0.33711756 0.61541185 0.58699084 0.71123459 0.63711648 0.54294467 0.34956668 0.16303043 -0.045172582 -0.16641273 0.10593932 -0.15697644 -0.026205127 -0.063728094
-0.09337209 0.26725716 0.45376032 0.34082814 1.0665267 1.0429154 0.84210931 0.94017243 0.98393905 0.97699854 0.81587327 0.7779003000000001 0.81860661 0.47230255 0.54607445 0.71132841 0.34545408 0.59041937 0.45653720000000003 0.37054491 0.85178703 0.22274349 0.39840572 0.28460078 0.49736514 0.70120432 0.075299251 0.35071242 0.25875233 0.23056116 0.28877620000000004 0.07736689 0.23689685 0.16692018 -0.06963847299999999 0.33711756 0.61541185 0.58699084 0.71123459 0.63711648 0.54294467 0.34956668 0.16303043 -0.045172582 -0.16641273 0.10593932 -0.15697644 -0.026205127 -0.063728094 -0.37007445
0.26725716 0.45376032 0.34082814 1.0665267 1.0429154 0.84210931 0.94017243 0.98393905 0.97699854 0.81587327 0.7779003000000001 0.81860661 0.47230255 0.54607445 0.71132841 0.34545408 0.59041937 0.45653720000000003 0.37054491 0.85178703 0.22274349 0.39840572 0.28460078 0.49736514 0.70120432 0.075299251 0.35071242 0.25875233 0.23056116 0.28877620000000004 0.07736689 0.23689685 0.16692018 -0.06963847299999999 0.33711756 0.61541185 0.58699084 0.71123459 0.63711648 0.54294467 0.34956668 0.16303043 -0.045172582 -0.16641273 0.10593932 -0.15697644 -0.026205127 -0.063728094 -0.37007445 -0.074981639
0.45376032 0.34082814 1.0665267 1.0429154 0.84210931 0.94017243 0.98393905 0.97699854 0.81587327 0.7779003000000001 0.81860661 0.47230255 0.54607445 0.71132841 0.34545408 0.59041937 0.45653720000000003 0.37054491 0.85178703 0.22274349 0.39840572 0.28460078 0.49736514 0.70120432 0.075299251 0.35071242 0.25875233 0.23056116 0.28877620000000004 0.07736689 0.23689685 0.16692018 -0.06963847299999999 0.33711756 0.61541185 0.58699084 0.71123459 0.63711648 0.54294467 0.34956668 0.16303043 -0.045172582 -0.16641273 0.10593932 -0.15697644 -0.026205127 -0.063728094 -0.37007445 -0.074981639 -0.21382220000000002
0.34082814 1.0665267 1.0429154 0.84210931 0.94017243 0.98393905 0.97699854 0.81587327 0.7779003000000001 0.81860661 0.47230255 0.54607445 0.71132841 0.34545408 0.59041937 0.45653720000000003 0.37054491 0.85178703 0.22274349 0.39840572 0.28460078 0.49736514 0.70120432 0.075299251 0.35071242 0.25875233 0.23056116 0.28877620000000004 0.07736689 0.23689685 0.16692018 -0.06963847299999999 0.33711756 0.61541185 0.58699084 0.71123459 0.63711648 0.54294467 0.34956668 0.16303043 -0.045172582 -0.16641273 0.10593932 -0.15697644 -0.026205127 -0.063728094 -0.37007445 -0.074981639 -0.21382220000000002 -0.13281116
1.0665267 1.0429154 0.84210931 0.94017243 0.98393905 0.97699854 0.81587327 0.7779003000000001 0.81860661 0.47230255 0.54607445 0.71132841 0.34545408 0.59041937 0.45653720000000003 0.37054491 0.85178703 0.22274349 0.39840572 0.28460078 0.49736514 0.70120432 0.075299251 0.35071242 0.25875233 0.23056116 0.28877620000000004 0.07736689 0.23689685 0.16692018 -0.06963847299999999 0.33711756 0.61541185 0.58699084 0.71123459 0.63711648 0.54294467 0.34956668 0.16303043 -0.045172582 -0.16641273 0.10593932 -0.15697644 -0.026205127 -0.063728094 -0.37007445 -0.074981639 -0.21382220000000002 -0.13281116 -0.21682791
1.0429154 0.84210931 0.94017243 0.98393905 0.97699854 0.81587327 0.7779003000000001 0.81860661 0.47230255 0.54607445 0.71132841 0.34545408 0.59041937 0.45653720000000003 0.37054491 0.85178703 0.22274349 0.39840572 0.28460078 0.49736514 0.70120432 0.075299251 0.35071242 0.25875233 0.23056116 0.28877620000000004 0.07736689 0.23689685 0.16692018 -0.06963847299999999 0.33711756 0.61541185 0.58699084 0.71123459 0.63711648 0.54294467 0.34956668 0.16303043 -0.045172582 -0.16641273 0.10593932 -0.15697644 -0.026205127 -0.063728094 -0.37007445 -0.074981639 -0.21382220000000002 -0.13281116 -0.21682791 -0.34657612
0.84210931 0.94017243 0.98393905 0.97699854 0.81587327 0.7779003000000001 0.81860661 0.47230255 0.54607445 0.71132841 0.34545408 0.59041937 0.45653720000000003 0.37054491 0.85178703 0.22274349 0.39840572 0.28460078 0.49736514 0.70120432 0.075299251 0.35071242 0.25875233 0.23056116 0.28877620000000004 0.07736689 0.23689685 0.16692018 -0.06963847299999999 0.33711756 0.61541185 0.58699084 0.71123459 0.63711648 0.54294467 0.34956668 0.16303043 -0.045172582 -0.16641273 0.10593932 -0.15697644 -0.026205127 -0.063728094 -0.37007445 -0.074981639 -0.21382220000000002 -0.13281116 -0.21682791 -0.34657612 -0.014023039
0.94017243 0.98393905 0.97699854 0.81587327 0.7779003000000001 0.81860661 0.47230255 0.54607445 0.71132841 0.34545408 0.59041937 0.45653720000000003 0.37054491 0.85178703 0.22274349 0.39840572 0.28460078 0.49736514 0.70120432 0.075299251 0.35071242 0.25875233 0.23056116 0.28877620000000004 0.07736689 0.23689685 0.16692018 -0.06963847299999999 0.33711756 0.61541185 0.58699084 0.71123459 0.63711648 0.54294467 0.34956668 0.16303043 -0.045172582 -0.16641273 0.10593932 -0.15697644 -0.026205127 -0.063728094 -0.37007445 -0.074981639 -0.21382220000000002 -0.13281116 -0.21682791 -0.34657612 -0.014023039 -0.18416609
0.98393905 0.97699854 0.81587327 0.7779003000000001 0.81860661 0.47230255 0.54607445 0.71132841 0.34545408 0.59041937 0.45653720000000003 0.37054491 0.85178703 0.22274349 0.39840572 0.28460078 0.49736514 0.70120432 0.075299251 0.35071242 0.25875233 0.23056116 0.28877620000000004 0.07736689 0.23689685 0.16692018 -0.06963847299999999 0.33711756 0.61541185 0.58699084 0.71123459 0.63711648 0.54294467 0.34956668 0.16303043 -0.045172582 -0.16641273 0.10593932 -0.15697644 -0.026205127 -0.063728094 -0.37007445 -0.074981639 -0.21382220000000002 -0.13281116 -0.21682791 -0.34657612 -0.014023039 -0.18416609 -0.17684524
0.97699854 0.81587327 0.7779003000000001 0.81860661 0.47230255 0.54607445 0.71132841 0.34545408 0.59041937 0.45653720000000003 0.37054491 0.85178703 0.22274349 0.39840572 0.28460078 0.49736514 0.70120432 0.075299251 0.35071242 0.25875233 0.23056116 0.28877620000000004 0.07736689 0.23689685 0.16692018 -0.06963847299999999 0.33711756 0.61541185 0.58699084 0.71123459 0.63711648 0.54294467 0.34956668 0.16303043 -0.045172582 -0.16641273 0.10593932 -0.15697644 -0.026205127 -0.063728094 -0.37007445 -0.074981639 -0.21382220000000002 -0.13281116 -0.21682791 -0.34657612 -0.014023039 -0.18416609 -0.17684524 -0.11922008
