1.3084559 2.5326755000000003 2.5672471000000003 1.1317266000000001 -0.042169112 0.55679287 1.1341733 0.90654975 1.0640724 0.48358225 -0.33310204 -0.30649192 -0.64862953 -0.79981042 -0.81463101 -0.88200523 -1.002864 -1.2456578 -1.2165421 -1.2608333999999999 -1.6924436999999999 -1.6718997 -1.8980276000000003 -2.1698596 -2.1852311 -2.4829402000000003 -2.4297767000000006 -2.4755274 -2.2562715 -1.9250092 -1.5828681999999998 -1.112299 -0.62868402 -0.19758705 0.074202562 0.24453867 0.51297591 0.70515466 0.55388315 0.5666342 0.76992444 0.50183663 0.42562598 0.68719628 0.50331669 0.56406933 0.60573608 0.57315027 0.61750989 0.5857523
2.5326755000000003 2.5672471000000003 1.1317266000000001 -0.042169112 0.55679287 1.1341733 0.90654975 1.0640724 0.48358225 -0.33310204 -0.30649192 -0.64862953 -0.79981042 -0.81463101 -0.88200523 -1.002864 -1.2456578 -1.2165421 -1.2608333999999999 -1.6924436999999999 -1.6718997 -1.8980276000000003 -2.1698596 -2.1852311 -2.4829402000000003 -2.4297767000000006 -2.4755274 -2.2562715 -1.9250092 -1.5828681999999998 -1.112299 -0.62868402 -0.19758705 0.074202562 0.24453867 0.51297591 0.70515466 0.55388315 0.5666342 0.76992444 0.50183663 0.42562598 0.68719628 0.50331669 0.56406933 0.60573608 0.57315027 0.61750989 0.5857523 0.53046861
2.5672471000000003 1.1317266000000001 -0.042169112 0.55679287 1.1341733 0.90654975 1.0640724 0.48358225 -0.33310204 -0.30649192 -0.64862953 -0.79981042 -0.81463101 -0.88200523 -1.002864 -1.2456578 -1.2165421 -1.2608333999999999 -1.6924436999999999 -1.6718997 -1.8980276000000003 -2.1698596 -2.1852311 -2.4829402000000003 -2.4297767000000006 -2.4755274 -2.2562715 -1.9250092 -1.5828681999999998 -1.112299 -0.62868402 -0.19758705 0.074202562 0.24453867 0.51297591 0.70515466 0.55388315 0.5666342 0.76992444 0.50183663 0.42562598 0.68719628 0.50331669 0.56406933 0.60573608 0.57315027 0.61750989 0.5857523 0.53046861 0.55388283
1.1317266000000001 -0.042169112 0.55679287 1.1341733 0.90654975 1.0640724 0.48358225 -0.33310204 -0.30649192 -0.64862953 -0.79981042 -0.81463101 -0.88200523 -1.002864 -1.2456578 -1.2165421 -1.2608333999999999 -1.6924436999999999 -1.6718997 -1.8980276000000003 -2.1698596 -2.1852311 -2.4829402000000003 -2.4297767000000006 -2.4755274 -2.2562715 -1.9250092 -1.5828681999999998 -1.112299 -0.62868402 -0.19758705 0.074202562 0.24453867 0.51297591 0.70515466 0.55388315 0.5666342 0.76992444 0.50183663 0.42562598 0.68719628 0.50331669 0.56406933 0.60573608 0.57315027 0.61750989 0.5857523 0.53046861 0.55388283 0.69972902
-0.042169112 0.55679287 1.1341733 0.90654975 1.0640724 0.48358225 -0.33310204 -0.30649192 -0.64862953 -0.79981042 -0.81463101 -0.88200523 -1.002864 -1.2456578 -1.2165421 -1.2608333999999999 -1.6924436999999999 -1.6718997 -1.8980276000000003 -2.1698596 -2.1852311 -2.4829402000000003 -2.4297767000000006 -2.4755274 -2.2562715 -1.9250092 -1.5828681999999998 -1.112299 -0.62868402 -0.19758705 0.074202562 0.24453867 0.51297591 0.70515466 0.55388315 0.5666342 0.76992444 0.50183663 0.42562598 0.68719628 0.50331669 0.56406933 0.60573608 0.57315027 0.61750989 0.5857523 0.53046861 0.55388283 0.69972902 0.50941901
0.55679287 1.1341733 0.90654975 1.0640724 0.48358225 -0.33310204 -0.30649192 -0.64862953 -0.79981042 -0.81463101 -0.88200523 -1.002864 -1.2456578 -1.2165421 -1.2608333999999999 -1.6924436999999999 -1.6718997 -1.8980276000000003 -2.1698596 -2.1852311 -2.4829402000000003 -2.4297767000000006 -2.4755274 -2.2562715 -1.9250092 -1.5828681999999998 -1.112299 -0.62868402 -0.19758705 0.074202562 0.24453867 0.51297591 0.70515466 0.55388315 0.5666342 0.76992444 0.50183663 0.42562598 0.68719628 0.50331669 0.56406933 0.60573608 0.57315027 0.61750989 0.5857523 0.53046861 0.55388283 0.69972902 0.50941901 0.43474328
1.1341733 0.90654975 1.0640724 0.48358225 -0.33310204 -0.30649192 -0.64862953 -0.79981042 -0.81463101 -0.88200523 -1.002864 -1.2456578 -1.2165421 -1.2608333999999999 -1.6924436999999999 -1.6718997 -1.8980276000000003 -2.1698596 -2.1852311 -2.4829402000000003 -2.4297767000000006 -2.4755274 -2.2562715 -1.9250092 -1.5828681999999998 -1.112299 -0.62868402 -0.19758705 0.074202562 0.24453867 0.51297591 0.70515466 0.55388315 0.5666342 0.76992444 0.50183663 0.42562598 0.68719628 0.50331669 0.56406933 0.60573608 0.57315027 0.61750989 0.5857523 0.53046861 0.55388283 0.69972902 0.50941901 0.43474328 0.5085047
0.90654975 1.0640724 0.48358225 -0.33310204 -0.30649192 -0.64862953 -0.79981042 -0.81463101 -0.88200523 -1.002864 -1.2456578 -1.2165421 -1.2608333999999999 -1.6924436999999999 -1.6718997 -1.8980276000000003 -2.1698596 -2.1852311 -2.4829402000000003 -2.4297767000000006 -2.4755274 -2.2562715 -1.9250092 -1.5828681999999998 -1.112299 -0.62868402 -0.19758705 0.074202562 0.24453867 0.51297591 0.70515466 0.55388315 0.5666342 0.76992444 0.50183663 0.42562598 0.68719628 0.50331669 0.56406933 0.60573608 0.57315027 0.61750989 0.5857523 0.53046861 0.55388283 0.69972902 0.50941901 0.43474328 0.5085047 0.45174653
1.0640724 0.48358225 -0.33310204 -0.30649192 -0.64862953 -0.79981042 -0.81463101 -0.88200523 -1.002864 -1.2456578 -1.2165421 -1.2608333999999999 -1.6924436999999999 -1.6718997 -1.8980276000000003 -2.1698596 -2.1852311 -2.4829402000000003 -2.4297767000000006 -2.4755274 -2.2562715 -1.9250092 -1.5828681999999998 -1.112299 -0.62868402 -0.19758705 0.074202562 0.24453867 0.51297591 0.70515466 0.55388315 0.5666342 0.76992444 0.50183663 0.42562598 0.68719628 0.50331669 0.56406933 0.60573608 0.57315027 0.61750989 0.5857523 0.53046861 0.55388283 0.69972902 0.50941901 0.43474328 0.5085047 0.45174653 0.4113844
0.48358225 -0.33310204 -0.30649192 -0.64862953 -0.79981042 -0.81463101 -0.88200523 -1.002864 -1.2456578 -1.2165421 -1.2608333999999999 -1.6924436999999999 -1.6718997 -1.8980276000000003 -2.1698596 -2.1852311 -2.4829402000000003 -2.4297767000000006 -2.4755274 -2.2562715 -1.9250092 -1.5828681999999998 -1.112299 -0.62868402 -0.19758705 0.074202562 0.24453867 0.51297591 0.70515466 0.55388315 0.5666342 0.76992444 0.50183663 0.42562598 0.68719628 0.50331669 0.56406933 0.60573608 0.57315027 0.61750989 0.5857523 0.53046861 0.55388283 0.69972902 0.50941901 0.43474328 0.5085047 0.45174653 0.4113844 0.32602884
-0.33310204 -0.30649192 -0.64862953 -0.79981042 -0.81463101 -0.88200523 -1.002864 -1.2456578 -1.2165421 -1.2608333999999999 -1.6924436999999999 -1.6718997 -1.8980276000000003 -2.1698596 -2.1852311 -2.4829402000000003 -2.4297767000000006 -2.4755274 -2.2562715 -1.9250092 -1.5828681999999998 -1.112299 -0.62868402 -0.19758705 0.074202562 0.24453867 0.51297591 0.70515466 0.55388315 0.5666342 0.76992444 0.50183663 0.42562598 0.68719628 0.50331669 0.56406933 0.60573608 0.57315027 0.61750989 0.5857523 0.53046861 0.55388283 0.69972902 0.50941901 0.43474328 0.5085047 0.45174653 0.4113844 0.32602884 0.43877057
-0.30649192 -0.64862953 -0.79981042 -0.81463101 -0.88200523 -1.002864 -1.2456578 -1.2165421 -1.2608333999999999 -1.6924436999999999 -1.6718997 -1.8980276000000003 -2.1698596 -2.1852311 -2.4829402000000003 -2.4297767000000006 -2.4755274 -2.2562715 -1.9250092 -1.5828681999999998 -1.112299 -0.62868402 -0.19758705 0.074202562 0.24453867 0.51297591 0.70515466 0.55388315 0.5666342 0.76992444 0.50183663 0.42562598 0.68719628 0.50331669 0.56406933 0.60573608 0.57315027 0.61750989 0.5857523 0.53046861 0.55388283 0.69972902 0.50941901 0.43474328 0.5085047 0.45174653 0.4113844 0.32602884 0.43877057 0.34449028
-0.64862953 -0.79981042 -0.81463101 -0.88200523 -1.002864 -1.2456578 -1.2165421 -1.2608333999999999 -1.6924436999999999 -1.6718997 -1.8980276000000003 -2.1698596 -2.1852311 -2.4829402000000003 -2.4297767000000006 -2.4755274 -2.2562715 -1.9250092 -1.5828681999999998 -1.112299 -0.62868402 -0.19758705 0.074202562 0.24453867 0.51297591 0.70515466 0.55388315 0.5666342 0.76992444 0.50183663 0.42562598 0.68719628 0.50331669 0.56406933 0.60573608 0.57315027 0.61750989 0.5857523 0.53046861 0.55388283 0.69972902 0.50941901 0.43474328 0.5085047 0.45174653 0.4113844 0.32602884 0.43877057 0.34449028 0.22102244
-0.79981042 -0.81463101 -0.88200523 -1.002864 -1.2456578 -1.2165421 -1.2608333999999999 -1.6924436999999999 -1.6718997 -1.8980276000000003 -2.1698596 -2.1852311 -2.4829402000000003 -2.4297767000000006 -2.4755274 -2.2562715 -1.9250092 -1.5828681999999998 -1.112299 -0.62868402 -0.19758705 0.074202562 0.24453867 0.51297591 0.70515466 0.55388315 0.5666342 0.76992444 0.50183663 0.42562598 0.68719628 0.50331669 0.56406933 0.60573608 0.57315027 0.61750989 0.5857523 0.53046861 0.55388283 0.69972902 0.50941901 0.43474328 0.5085047 0.45174653 0.4113844 0.32602884 0.43877057 0.34449028 0.22102244 0.18235969
-0.81463101 -0.88200523 -1.002864 -1.2456578 -1.2165421 -1.2608333999999999 -1.6924436999999999 -1.6718997 -1.8980276000000003 -2.1698596 -2.1852311 -2.4829402000000003 -2.4297767000000006 -2.4755274 -2.2562715 -1.9250092 -1.5828681999999998 -1.112299 -0.62868402 -0.19758705 0.074202562 0.24453867 0.51297591 0.70515466 0.55388315 0.5666342 0.76992444 0.50183663 0.42562598 0.68719628 0.50331669 0.56406933 0.60573608 0.57315027 0.61750989 0.5857523 0.53046861 0.55388283 0.69972902 0.50941901 0.43474328 0.5085047 0.45174653 0.4113844 0.32602884 0.43877057 0.34449028 0.22102244 0.18235969 0.29640352
-0.88200523 -1.002864 -1.2456578 -1.2165421 -1.2608333999999999 -1.6924436999999999 -1.6718997 -1.8980276000000003 -2.1698596 -2.1852311 -2.4829402000000003 -2.4297767000000006 -2.4755274 -2.2562715 -1.9250092 -1.5828681999999998 -1.112299 -0.62868402 -0.19758705 0.074202562 0.24453867 0.51297591 0.70515466 0.55388315 0.5666342 0.76992444 0.50183663 0.42562598 0.68719628 0.50331669 0.56406933 0.60573608 0.57315027 0.61750989 0.5857523 0.53046861 0.55388283 0.69972902 0.50941901 0.43474328 0.5085047 0.45174653 0.4113844 0.32602884 0.43877057 0.34449028 0.22102244 0.18235969 0.29640352 0.19574463
-1.002864 -1.2456578 -1.2165421 -1.2608333999999999 -1.6924436999999999 -1.6718997 -1.8980276000000003 -2.1698596 -2.1852311 -2.4829402000000003 -2.4297767000000006 -2.4755274 -2.2562715 -1.9250092 -1.5828681999999998 -1.112299 -0.62868402 -0.19758705 0.074202562 0.24453867 0.51297591 0.70515466 0.55388315 0.5666342 0.76992444 0.50183663 0.42562598 0.68719628 0.50331669 0.56406933 0.60573608 0.57315027 0.61750989 0.5857523 0.53046861 0.55388283 0.69972902 0.50941901 0.43474328 0.5085047 0.45174653 0.4113844 0.32602884 0.43877057 0.34449028 0.22102244 0.18235969 0.29640352 0.19574463 0.08222988099999999
-1.2456578 -1.2165421 -1.2608333999999999 -1.6924436999999999 -1.6718997 -1.8980276000000003 -2.1698596 -2.1852311 -2.4829402000000003 -2.4297767000000006 -2.4755274 -2.2562715 -1.9250092 -1.5828681999999998 -1.112299 -0.62868402 -0.19758705 0.074202562 0.24453867 0.51297591 0.70515466 0.55388315 0.5666342 0.76992444 0.50183663 0.42562598 0.68719628 0.50331669 0.56406933 0.60573608 0.57315027 0.61750989 0.5857523 0.53046861 0.55388283 0.69972902 0.50941901 0.43474328 0.5085047 0.45174653 0.4113844 0.32602884 0.43877057 0.34449028 0.22102244 0.18235969 0.29640352 0.19574463 0.08222988099999999 0.25161629
-1.2165421 -1.2608333999999999 -1.6924436999999999 -1.6718997 -1.8980276000000003 -2.1698596 -2.1852311 -2.4829402000000003 -2.4297767000000006 -2.4755274 -2.2562715 -1.9250092 -1.5828681999999998 -1.112299 -0.62868402 -0.19758705 0.074202562 0.24453867 0.51297591 0.70515466 0.55388315 0.5666342 0.76992444 0.50183663 0.42562598 0.68719628 0.50331669 0.56406933 0.60573608 0.57315027 0.61750989 0.5857523 0.53046861 0.55388283 0.69972902 0.50941901 0.43474328 0.5085047 0.45174653 0.4113844 0.32602884 0.43877057 0.34449028 0.22102244 0.18235969 0.29640352 0.19574463 0.08222988099999999 0.25161629 0.06173238599999999
-1.2608333999999999 -1.6924436999999999 -1.6718997 -1.8980276000000003 -2.1698596 -2.1852311 -2.4829402000000003 -2.4297767000000006 -2.4755274 -2.2562715 -1.9250092 -1.5828681999999998 -1.112299 -0.62868402 -0.19758705 0.074202562 0.24453867 0.51297591 0.70515466 0.55388315 0.5666342 0.76992444 0.50183663 0.42562598 0.68719628 0.50331669 0.56406933 0.60573608 0.57315027 0.61750989 0.5857523 0.53046861 0.55388283 0.69972902 0.50941901 0.43474328 0.5085047 0.45174653 0.4113844 0.32602884 0.43877057 0.34449028 0.22102244 0.18235969 0.29640352 0.19574463 0.08222988099999999 0.25161629 0.06173238599999999 0.11608909
-1.6924436999999999 -1.6718997 -1.8980276000000003 -2.1698596 -2.1852311 -2.4829402000000003 -2.4297767000000006 -2.4755274 -2.2562715 -1.9250092 -1.5828681999999998 -1.112299 -0.62868402 -0.19758705 0.074202562 0.24453867 0.51297591 0.70515466 0.55388315 0.5666342 0.76992444 0.50183663 0.42562598 0.68719628 0.50331669 0.56406933 0.60573608 0.57315027 0.61750989 0.5857523 0.53046861 0.55388283 0.69972902 0.50941901 0.43474328 0.5085047 0.45174653 0.4113844 0.32602884 0.43877057 0.34449028 0.22102244 0.18235969 0.29640352 0.19574463 0.08222988099999999 0.25161629 0.06173238599999999 0.11608909 0.044929444000000006
-1.6718997 -1.8980276000000003 -2.1698596 -2.1852311 -2.4829402000000003 -2.4297767000000006 -2.4755274 -2.2562715 -1.9250092 -1.5828681999999998 -1.112299 -0.62868402 -0.19758705 0.074202562 0.24453867 0.51297591 0.70515466 0.55388315 0.5666342 0.76992444 0.50183663 0.42562598 0.68719628 0.50331669 0.56406933 0.60573608 0.57315027 0.61750989 0.5857523 0.53046861 0.55388283 0.69972902 0.50941901 0.43474328 0.5085047 0.45174653 0.4113844 0.32602884 0.43877057 0.34449028 0.22102244 0.18235969 0.29640352 0.19574463 0.08222988099999999 0.25161629 0.06173238599999999 0.11608909 0.044929444000000006 0.22205897
-1.8980276000000003 -2.1698596 -2.1852311 -2.4829402000000003 -2.4297767000000006 -2.4755274 -2.2562715 -1.9250092 -1.5828681999999998 -1.112299 -0.62868402 -0.19758705 0.074202562 0.24453867 0.51297591 0.70515466 0.55388315 0.5666342 0.76992444 0.50183663 0.42562598 0.68719628 0.50331669 0.56406933 0.60573608 0.57315027 0.61750989 0.5857523 0.53046861 0.55388283 0.69972902 0.50941901 0.43474328 0.5085047 0.45174653 0.4113844 0.32602884 0.43877057 0.34449028 0.22102244 0.18235969 0.29640352 0.19574463 0.08222988099999999 0.25161629 0.06173238599999999 0.11608909 0.044929444000000006 0.22205897 0.47938609
-2.1698596 -2.1852311 -2.4829402000000003 -2.4297767000000006 -2.4755274 -2.2562715 -1.9250092 -1.5828681999999998 -1.112299 -0.62868402 -0.19758705 0.074202562 0.24453867 0.51297591 0.70515466 0.55388315 0.5666342 0.76992444 0.50183663 0.42562598 0.68719628 0.50331669 0.56406933 0.60573608 0.57315027 0.61750989 0.5857523 0.53046861 0.55388283 0.69972902 0.50941901 0.43474328 0.5085047 0.45174653 0.4113844 0.32602884 0.43877057 0.34449028 0.22102244 0.18235969 0.29640352 0.19574463 0.08222988099999999 0.25161629 0.06173238599999999 0.11608909 0.044929444000000006 0.22205897 0.47938609 0.48613213
-2.1852311 -2.4829402000000003 -2.4297767000000006 -2.4755274 -2.2562715 -1.9250092 -1.5828681999999998 -1.112299 -0.62868402 -0.19758705 0.074202562 0.24453867 0.51297591 0.70515466 0.55388315 0.5666342 0.76992444 0.50183663 0.42562598 0.68719628 0.50331669 0.56406933 0.60573608 0.57315027 0.61750989 0.5857523 0.53046861 0.55388283 0.69972902 0.50941901 0.43474328 0.5085047 0.45174653 0.4113844 0.32602884 0.43877057 0.34449028 0.22102244 0.18235969 0.29640352 0.19574463 0.08222988099999999 0.25161629 0.06173238599999999 0.11608909 0.044929444000000006 0.22205897 0.47938609 0.48613213 0.53600098
-2.4829402000000003 -2.4297767000000006 -2.4755274 -2.2562715 -1.9250092 -1.5828681999999998 -1.112299 -0.62868402 -0.19758705 0.074202562 0.24453867 0.51297591 0.70515466 0.55388315 0.5666342 0.76992444 0.50183663 0.42562598 0.68719628 0.50331669 0.56406933 0.60573608 0.57315027 0.61750989 0.5857523 0.53046861 0.55388283 0.69972902 0.50941901 0.43474328 0.5085047 0.45174653 0.4113844 0.32602884 0.43877057 0.34449028 0.22102244 0.18235969 0.29640352 0.19574463 0.08222988099999999 0.25161629 0.06173238599999999 0.11608909 0.044929444000000006 0.22205897 0.47938609 0.48613213 0.53600098 0.35084294
-2.4297767000000006 -2.4755274 -2.2562715 -1.9250092 -1.5828681999999998 -1.112299 -0.62868402 -0.19758705 0.074202562 0.24453867 0.51297591 0.70515466 0.55388315 0.5666342 0.76992444 0.50183663 0.42562598 0.68719628 0.50331669 0.56406933 0.60573608 0.57315027 0.61750989 0.5857523 0.53046861 0.55388283 0.69972902 0.50941901 0.43474328 0.5085047 0.45174653 0.4113844 0.32602884 0.43877057 0.34449028 0.22102244 0.18235969 0.29640352 0.19574463 0.08222988099999999 0.25161629 0.06173238599999999 0.11608909 0.044929444000000006 0.22205897 0.47938609 0.48613213 0.53600098 0.35084294 0.2633702
-2.4755274 -2.2562715 -1.9250092 -1.5828681999999998 -1.112299 -0.62868402 -0.19758705 0.074202562 0.24453867 0.51297591 0.70515466 0.55388315 0.5666342 0.76992444 0.50183663 0.42562598 0.68719628 0.50331669 0.56406933 0.60573608 0.57315027 0.61750989 0.5857523 0.53046861 0.55388283 0.69972902 0.50941901 0.43474328 0.5085047 0.45174653 0.4113844 0.32602884 0.43877057 0.34449028 0.22102244 0.18235969 0.29640352 0.19574463 0.08222988099999999 0.25161629 0.06173238599999999 0.11608909 0.044929444000000006 0.22205897 0.47938609 0.48613213 0.53600098 0.35084294 0.2633702 0.05023721900000001
-2.2562715 -1.9250092 -1.5828681999999998 -1.112299 -0.62868402 -0.19758705 0.074202562 0.24453867 0.51297591 0.70515466 0.55388315 0.5666342 0.76992444 0.50183663 0.42562598 0.68719628 0.50331669 0.56406933 0.60573608 0.57315027 0.61750989 0.5857523 0.53046861 0.55388283 0.69972902 0.50941901 0.43474328 0.5085047 0.45174653 0.4113844 0.32602884 0.43877057 0.34449028 0.22102244 0.18235969 0.29640352 0.19574463 0.08222988099999999 0.25161629 0.06173238599999999 0.11608909 0.044929444000000006 0.22205897 0.47938609 0.48613213 0.53600098 0.35084294 0.2633702 0.05023721900000001 -0.024588945
-1.9250092 -1.5828681999999998 -1.112299 -0.62868402 -0.19758705 0.074202562 0.24453867 0.51297591 0.70515466 0.55388315 0.5666342 0.76992444 0.50183663 0.42562598 0.68719628 0.50331669 0.56406933 0.60573608 0.57315027 0.61750989 0.5857523 0.53046861 0.55388283 0.69972902 0.50941901 0.43474328 0.5085047 0.45174653 0.4113844 0.32602884 0.43877057 0.34449028 0.22102244 0.18235969 0.29640352 0.19574463 0.08222988099999999 0.25161629 0.06173238599999999 0.11608909 0.044929444000000006 0.22205897 0.47938609 0.48613213 0.53600098 0.35084294 0.2633702 0.05023721900000001 -0.024588945 -0.040239751000000004
-1.5828681999999998 -1.112299 -0.62868402 -0.19758705 0.074202562 0.24453867 0.51297591 0.70515466 0.55388315 0.5666342 0.76992444 0.50183663 0.42562598 0.68719628 0.50331669 0.56406933 0.60573608 0.57315027 0.61750989 0.5857523 0.53046861 0.55388283 0.69972902 0.50941901 0.43474328 0.5085047 0.45174653 0.4113844 0.32602884 0.43877057 0.34449028 0.22102244 0.18235969 0.29640352 0.19574463 0.08222988099999999 0.25161629 0.06173238599999999 0.11608909 0.044929444000000006 0.22205897 0.47938609 0.48613213 0.53600098 0.35084294 0.2633702 0.05023721900000001 -0.024588945 -0.040239751000000004 -0.081721791
-1.112299 -0.62868402 -0.19758705 0.074202562 0.24453867 0.51297591 0.70515466 0.55388315 0.5666342 0.76992444 0.50183663 0.42562598 0.68719628 0.50331669 0.56406933 0.60573608 0.57315027 0.61750989 0.5857523 0.53046861 0.55388283 0.69972902 0.50941901 0.43474328 0.5085047 0.45174653 0.4113844 0.32602884 0.43877057 0.34449028 0.22102244 0.18235969 0.29640352 0.19574463 0.08222988099999999 0.25161629 0.06173238599999999 0.11608909 0.044929444000000006 0.22205897 0.47938609 0.48613213 0.53600098 0.35084294 0.2633702 0.05023721900000001 -0.024588945 -0.040239751000000004 -0.081721791 0.017324661
-0.62868402 -0.19758705 0.074202562 0.24453867 0.51297591 0.70515466 0.55388315 0.5666342 0.76992444 0.50183663 0.42562598 0.68719628 0.50331669 0.56406933 0.60573608 0.57315027 0.61750989 0.5857523 0.53046861 0.55388283 0.69972902 0.50941901 0.43474328 0.5085047 0.45174653 0.4113844 0.32602884 0.43877057 0.34449028 0.22102244 0.18235969 0.29640352 0.19574463 0.08222988099999999 0.25161629 0.06173238599999999 0.11608909 0.044929444000000006 0.22205897 0.47938609 0.48613213 0.53600098 0.35084294 0.2633702 0.05023721900000001 -0.024588945 -0.040239751000000004 -0.081721791 0.017324661 -0.18496493
-0.19758705 0.074202562 0.24453867 0.51297591 0.70515466 0.55388315 0.5666342 0.76992444 0.50183663 0.42562598 0.68719628 0.50331669 0.56406933 0.60573608 0.57315027 0.61750989 0.5857523 0.53046861 0.55388283 0.69972902 0.50941901 0.43474328 0.5085047 0.45174653 0.4113844 0.32602884 0.43877057 0.34449028 0.22102244 0.18235969 0.29640352 0.19574463 0.08222988099999999 0.25161629 0.06173238599999999 0.11608909 0.044929444000000006 0.22205897 0.47938609 0.48613213 0.53600098 0.35084294 0.2633702 0.05023721900000001 -0.024588945 -0.040239751000000004 -0.081721791 0.017324661 -0.18496493 0.020526854
0.074202562 0.24453867 0.51297591 0.70515466 0.55388315 0.5666342 0.76992444 0.50183663 0.42562598 0.68719628 0.50331669 0.56406933 0.60573608 0.57315027 0.61750989 0.5857523 0.53046861 0.55388283 0.69972902 0.50941901 0.43474328 0.5085047 0.45174653 0.4113844 0.32602884 0.43877057 0.34449028 0.22102244 0.18235969 0.29640352 0.19574463 0.08222988099999999 0.25161629 0.06173238599999999 0.11608909 0.044929444000000006 0.22205897 0.47938609 0.48613213 0.53600098 0.35084294 0.2633702 0.05023721900000001 -0.024588945 -0.040239751000000004 -0.081721791 0.017324661 -0.18496493 0.020526854 -0.041323205
0.24453867 0.51297591 0.70515466 0.55388315 0.5666342 0.76992444 0.50183663 0.42562598 0.68719628 0.50331669 0.56406933 0.60573608 0.57315027 0.61750989 0.5857523 0.53046861 0.55388283 0.69972902 0.50941901 0.43474328 0.5085047 0.45174653 0.4113844 0.32602884 0.43877057 0.34449028 0.22102244 0.18235969 0.29640352 0.19574463 0.08222988099999999 0.25161629 0.06173238599999999 0.11608909 0.044929444000000006 0.22205897 0.47938609 0.48613213 0.53600098 0.35084294 0.2633702 0.05023721900000001 -0.024588945 -0.040239751000000004 -0.081721791 0.017324661 -0.18496493 0.020526854 -0.041323205 0.050318386
0.51297591 0.70515466 0.55388315 0.5666342 0.76992444 0.50183663 0.42562598 0.68719628 0.50331669 0.56406933 0.60573608 0.57315027 0.61750989 0.5857523 0.53046861 0.55388283 0.69972902 0.50941901 0.43474328 0.5085047 0.45174653 0.4113844 0.32602884 0.43877057 0.34449028 0.22102244 0.18235969 0.29640352 0.19574463 0.08222988099999999 0.25161629 0.06173238599999999 0.11608909 0.044929444000000006 0.22205897 0.47938609 0.48613213 0.53600098 0.35084294 0.2633702 0.05023721900000001 -0.024588945 -0.040239751000000004 -0.081721791 0.017324661 -0.18496493 0.020526854 -0.041323205 0.050318386 0.044882988
0.70515466 0.55388315 0.5666342 0.76992444 0.50183663 0.42562598 0.68719628 0.50331669 0.56406933 0.60573608 0.57315027 0.61750989 0.5857523 0.53046861 0.55388283 0.69972902 0.50941901 0.43474328 0.5085047 0.45174653 0.4113844 0.32602884 0.43877057 0.34449028 0.22102244 0.18235969 0.29640352 0.19574463 0.08222988099999999 0.25161629 0.06173238599999999 0.11608909 0.044929444000000006 0.22205897 0.47938609 0.48613213 0.53600098 0.35084294 0.2633702 0.05023721900000001 -0.024588945 -0.040239751000000004 -0.081721791 0.017324661 -0.18496493 0.020526854 -0.041323205 0.050318386 0.044882988 -0.13149635
0.55388315 0.5666342 0.76992444 0.50183663 0.42562598 0.68719628 0.50331669 0.56406933 0.60573608 0.57315027 0.61750989 0.5857523 0.53046861 0.55388283 0.69972902 0.50941901 0.43474328 0.5085047 0.45174653 0.4113844 0.32602884 0.43877057 0.34449028 0.22102244 0.18235969 0.29640352 0.19574463 0.08222988099999999 0.25161629 0.06173238599999999 0.11608909 0.044929444000000006 0.22205897 0.47938609 0.48613213 0.53600098 0.35084294 0.2633702 0.05023721900000001 -0.024588945 -0.040239751000000004 -0.081721791 0.017324661 -0.18496493 0.020526854 -0.041323205 0.050318386 0.044882988 -0.13149635 -0.033367784
0.5666342 0.76992444 0.50183663 0.42562598 0.68719628 0.50331669 0.56406933 0.60573608 0.57315027 0.61750989 0.5857523 0.53046861 0.55388283 0.69972902 0.50941901 0.43474328 0.5085047 0.45174653 0.4113844 0.32602884 0.43877057 0.34449028 0.22102244 0.18235969 0.29640352 0.19574463 0.08222988099999999 0.25161629 0.06173238599999999 0.11608909 0.044929444000000006 0.22205897 0.47938609 0.48613213 0.53600098 0.35084294 0.2633702 0.05023721900000001 -0.024588945 -0.040239751000000004 -0.081721791 0.017324661 -0.18496493 0.020526854 -0.041323205 0.050318386 0.044882988 -0.13149635 -0.033367784 0.097154351
0.76992444 0.50183663 0.42562598 0.68719628 0.50331669 0.56406933 0.60573608 0.57315027 0.61750989 0.5857523 0.53046861 0.55388283 0.69972902 0.50941901 0.43474328 0.5085047 0.45174653 0.4113844 0.32602884 0.43877057 0.34449028 0.22102244 0.18235969 0.29640352 0.19574463 0.08222988099999999 0.25161629 0.06173238599999999 0.11608909 0.044929444000000006 0.22205897 0.47938609 0.48613213 0.53600098 0.35084294 0.2633702 0.05023721900000001 -0.024588945 -0.040239751000000004 -0.081721791 0.017324661 -0.18496493 0.020526854 -0.041323205 0.050318386 0.044882988 -0.13149635 -0.033367784 0.097154351 0.080608674
0.50183663 0.42562598 0.68719628 0.50331669 0.56406933 0.60573608 0.57315027 0.61750989 0.5857523 0.53046861 0.55388283 0.69972902 0.50941901 0.43474328 0.5085047 0.45174653 0.4113844 0.32602884 0.43877057 0.34449028 0.22102244 0.18235969 0.29640352 0.19574463 0.08222988099999999 0.25161629 0.06173238599999999 0.11608909 0.044929444000000006 0.22205897 0.47938609 0.48613213 0.53600098 0.35084294 0.2633702 0.05023721900000001 -0.024588945 -0.040239751000000004 -0.081721791 0.017324661 -0.18496493 0.020526854 -0.041323205 0.050318386 0.044882988 -0.13149635 -0.033367784 0.097154351 0.080608674 0.4181689
0.42562598 0.68719628 0.50331669 0.56406933 0.60573608 0.57315027 0.61750989 0.5857523 0.53046861 0.55388283 0.69972902 0.50941901 0.43474328 0.5085047 0.45174653 0.4113844 0.32602884 0.43877057 0.34449028 0.22102244 0.18235969 0.29640352 0.19574463 0.08222988099999999 0.25161629 0.06173238599999999 0.11608909 0.044929444000000006 0.22205897 0.47938609 0.48613213 0.53600098 0.35084294 0.2633702 0.05023721900000001 -0.024588945 -0.040239751000000004 -0.081721791 0.017324661 -0.18496493 0.020526854 -0.041323205 0.050318386 0.044882988 -0.13149635 -0.033367784 0.097154351 0.080608674 0.4181689 1.4756806
0.68719628 0.50331669 0.56406933 0.60573608 0.57315027 0.61750989 0.5857523 0.53046861 0.55388283 0.69972902 0.50941901 0.43474328 0.5085047 0.45174653 0.4113844 0.32602884 0.43877057 0.34449028 0.22102244 0.18235969 0.29640352 0.19574463 0.08222988099999999 0.25161629 0.06173238599999999 0.11608909 0.044929444000000006 0.22205897 0.47938609 0.48613213 0.53600098 0.35084294 0.2633702 0.05023721900000001 -0.024588945 -0.040239751000000004 -0.081721791 0.017324661 -0.18496493 0.020526854 -0.041323205 0.050318386 0.044882988 -0.13149635 -0.033367784 0.097154351 0.080608674 0.4181689 1.4756806 2.1755419999999996
0.50331669 0.56406933 0.60573608 0.57315027 0.61750989 0.5857523 0.53046861 0.55388283 0.69972902 0.50941901 0.43474328 0.5085047 0.45174653 0.4113844 0.32602884 0.43877057 0.34449028 0.22102244 0.18235969 0.29640352 0.19574463 0.08222988099999999 0.25161629 0.06173238599999999 0.11608909 0.044929444000000006 0.22205897 0.47938609 0.48613213 0.53600098 0.35084294 0.2633702 0.05023721900000001 -0.024588945 -0.040239751000000004 -0.081721791 0.017324661 -0.18496493 0.020526854 -0.041323205 0.050318386 0.044882988 -0.13149635 -0.033367784 0.097154351 0.080608674 0.4181689 1.4756806 2.1755419999999996 0.82515804
0.56406933 0.60573608 0.57315027 0.61750989 0.5857523 0.53046861 0.55388283 0.69972902 0.50941901 0.43474328 0.5085047 0.45174653 0.4113844 0.32602884 0.43877057 0.34449028 0.22102244 0.18235969 0.29640352 0.19574463 0.08222988099999999 0.25161629 0.06173238599999999 0.11608909 0.044929444000000006 0.22205897 0.47938609 0.48613213 0.53600098 0.35084294 0.2633702 0.05023721900000001 -0.024588945 -0.040239751000000004 -0.081721791 0.017324661 -0.18496493 0.020526854 -0.041323205 0.050318386 0.044882988 -0.13149635 -0.033367784 0.097154351 0.080608674 0.4181689 1.4756806 2.1755419999999996 0.82515804 -0.54097616
0.60573608 0.57315027 0.61750989 0.5857523 0.53046861 0.55388283 0.69972902 0.50941901 0.43474328 0.5085047 0.45174653 0.4113844 0.32602884 0.43877057 0.34449028 0.22102244 0.18235969 0.29640352 0.19574463 0.08222988099999999 0.25161629 0.06173238599999999 0.11608909 0.044929444000000006 0.22205897 0.47938609 0.48613213 0.53600098 0.35084294 0.2633702 0.05023721900000001 -0.024588945 -0.040239751000000004 -0.081721791 0.017324661 -0.18496493 0.020526854 -0.041323205 0.050318386 0.044882988 -0.13149635 -0.033367784 0.097154351 0.080608674 0.4181689 1.4756806 2.1755419999999996 0.82515804 -0.54097616 -0.091631666
