0.55686579 0.81828421 0.96784416 1.3404921 1.9317436000000001 2.3661759 2.3375529 1.8998198 1.3690636 0.89970477 0.36114369 -0.17698351 -0.34962957 -0.18012552 -0.13735329999999998 -0.3138134 -0.39519556 -0.34465947 -0.31354598 -0.27889901 -0.27884146 -0.43379412 -0.59497077 -0.62117654 -0.6793944000000001 -0.81701902 -0.86013889 -0.84316095 -0.89559815 -0.92122324 -0.88928992 -0.9648305 -1.1142478 -1.1620867 -1.1577271 -1.2233045 -1.3407031999999999 -1.4862591 -1.6275197 -1.6469463 -1.5591661 -1.5406761 -1.6107753 -1.6279841999999998 -1.6003671 -1.6350744 -1.6498041 -1.47202 -1.1759175 -1.0049538
0.81828421 0.96784416 1.3404921 1.9317436000000001 2.3661759 2.3375529 1.8998198 1.3690636 0.89970477 0.36114369 -0.17698351 -0.34962957 -0.18012552 -0.13735329999999998 -0.3138134 -0.39519556 -0.34465947 -0.31354598 -0.27889901 -0.27884146 -0.43379412 -0.59497077 -0.62117654 -0.6793944000000001 -0.81701902 -0.86013889 -0.84316095 -0.89559815 -0.92122324 -0.88928992 -0.9648305 -1.1142478 -1.1620867 -1.1577271 -1.2233045 -1.3407031999999999 -1.4862591 -1.6275197 -1.6469463 -1.5591661 -1.5406761 -1.6107753 -1.6279841999999998 -1.6003671 -1.6350744 -1.6498041 -1.47202 -1.1759175 -1.0049538 -0.9702992
0.96784416 1.3404921 1.9317436000000001 2.3661759 2.3375529 1.8998198 1.3690636 0.89970477 0.36114369 -0.17698351 -0.34962957 -0.18012552 -0.13735329999999998 -0.3138134 -0.39519556 -0.34465947 -0.31354598 -0.27889901 -0.27884146 -0.43379412 -0.59497077 -0.62117654 -0.6793944000000001 -0.81701902 -0.86013889 -0.84316095 -0.89559815 -0.92122324 -0.88928992 -0.9648305 -1.1142478 -1.1620867 -1.1577271 -1.2233045 -1.3407031999999999 -1.4862591 -1.6275197 -1.6469463 -1.5591661 -1.5406761 -1.6107753 -1.6279841999999998 -1.6003671 -1.6350744 -1.6498041 -1.47202 -1.1759175 -1.0049538 -0.9702992 -0.88095065
1.3404921 1.9317436000000001 2.3661759 2.3375529 1.8998198 1.3690636 0.89970477 0.36114369 -0.17698351 -0.34962957 -0.18012552 -0.13735329999999998 -0.3138134 -0.39519556 -0.34465947 -0.31354598 -0.27889901 -0.27884146 -0.43379412 -0.59497077 -0.62117654 -0.6793944000000001 -0.81701902 -0.86013889 -0.84316095 -0.89559815 -0.92122324 -0.88928992 -0.9648305 -1.1142478 -1.1620867 -1.1577271 -1.2233045 -1.3407031999999999 -1.4862591 -1.6275197 -1.6469463 -1.5591661 -1.5406761 -1.6107753 -1.6279841999999998 -1.6003671 -1.6350744 -1.6498041 -1.47202 -1.1759175 -1.0049538 -0.9702992 -0.88095065 -0.73201572
1.9317436000000001 2.3661759 2.3375529 1.8998198 1.3690636 0.89970477 0.36114369 -0.17698351 -0.34962957 -0.18012552 -0.13735329999999998 -0.3138134 -0.39519556 -0.34465947 -0.31354598 -0.27889901 -0.27884146 -0.43379412 -0.59497077 -0.62117654 -0.6793944000000001 -0.81701902 -0.86013889 -0.84316095 -0.89559815 -0.92122324 -0.88928992 -0.9648305 -1.1142478 -1.1620867 -1.1577271 -1.2233045 -1.3407031999999999 -1.4862591 -1.6275197 -1.6469463 -1.5591661 -1.5406761 -1.6107753 -1.6279841999999998 -1.6003671 -1.6350744 -1.6498041 -1.47202 -1.1759175 -1.0049538 -0.9702992 -0.88095065 -0.73201572 -0.63995015
2.3661759 2.3375529 1.8998198 1.3690636 0.89970477 0.36114369 -0.17698351 -0.34962957 -0.18012552 -0.13735329999999998 -0.3138134 -0.39519556 -0.34465947 -0.31354598 -0.27889901 -0.27884146 -0.43379412 -0.59497077 -0.62117654 -0.6793944000000001 -0.81701902 -0.86013889 -0.84316095 -0.89559815 -0.92122324 -0.88928992 -0.9648305 -1.1142478 -1.1620867 -1.1577271 -1.2233045 -1.3407031999999999 -1.4862591 -1.6275197 -1.6469463 -1.5591661 -1.5406761 -1.6107753 -1.6279841999999998 -1.6003671 -1.6350744 -1.6498041 -1.47202 -1.1759175 -1.0049538 -0.9702992 -0.88095065 -0.73201572 -0.63995015 -0.52509206
2.3375529 1.8998198 1.3690636 0.89970477 0.36114369 -0.17698351 -0.34962957 -0.18012552 -0.13735329999999998 -0.3138134 -0.39519556 -0.34465947 -0.31354598 -0.27889901 -0.27884146 -0.43379412 -0.59497077 -0.62117654 -0.6793944000000001 -0.81701902 -0.86013889 -0.84316095 -0.89559815 -0.92122324 -0.88928992 -0.9648305 -1.1142478 -1.1620867 -1.1577271 -1.2233045 -1.3407031999999999 -1.4862591 -1.6275197 -1.6469463 -1.5591661 -1.5406761 -1.6107753 -1.6279841999999998 -1.6003671 -1.6350744 -1.6498041 -1.47202 -1.1759175 -1.0049538 -0.9702992 -0.88095065 -0.73201572 -0.63995015 -0.52509206 -0.28096973
1.8998198 1.3690636 0.89970477 0.36114369 -0.17698351 -0.34962957 -0.18012552 -0.13735329999999998 -0.3138134 -0.39519556 -0.34465947 -0.31354598 -0.27889901 -0.27884146 -0.43379412 -0.59497077 -0.62117654 -0.6793944000000001 -0.81701902 -0.86013889 -0.84316095 -0.89559815 -0.92122324 -0.88928992 -0.9648305 -1.1142478 -1.1620867 -1.1577271 -1.2233045 -1.3407031999999999 -1.4862591 -1.6275197 -1.6469463 -1.5591661 -1.5406761 -1.6107753 -1.6279841999999998 -1.6003671 -1.6350744 -1.6498041 -1.47202 -1.1759175 -1.0049538 -0.9702992 -0.88095065 -0.73201572 -0.63995015 -0.52509206 -0.28096973 -0.062383655
1.3690636 0.89970477 0.36114369 -0.17698351 -0.34962957 -0.18012552 -0.13735329999999998 -0.3138134 -0.39519556 -0.34465947 -0.31354598 -0.27889901 -0.27884146 -0.43379412 -0.59497077 -0.62117654 -0.6793944000000001 -0.81701902 -0.86013889 -0.84316095 -0.89559815 -0.92122324 -0.88928992 -0.9648305 -1.1142478 -1.1620867 -1.1577271 -1.2233045 -1.3407031999999999 -1.4862591 -1.6275197 -1.6469463 -1.5591661 -1.5406761 -1.6107753 -1.6279841999999998 -1.6003671 -1.6350744 -1.6498041 -1.47202 -1.1759175 -1.0049538 -0.9702992 -0.88095065 -0.73201572 -0.63995015 -0.52509206 -0.28096973 -0.062383655 -0.021949972
0.89970477 0.36114369 -0.17698351 -0.34962957 -0.18012552 -0.13735329999999998 -0.3138134 -0.39519556 -0.34465947 -0.31354598 -0.27889901 -0.27884146 -0.43379412 -0.59497077 -0.62117654 -0.6793944000000001 -0.81701902 -0.86013889 -0.84316095 -0.89559815 -0.92122324 -0.88928992 -0.9648305 -1.1142478 -1.1620867 -1.1577271 -1.2233045 -1.3407031999999999 -1.4862591 -1.6275197 -1.6469463 -1.5591661 -1.5406761 -1.6107753 -1.6279841999999998 -1.6003671 -1.6350744 -1.6498041 -1.47202 -1.1759175 -1.0049538 -0.9702992 -0.88095065 -0.73201572 -0.63995015 -0.52509206 -0.28096973 -0.062383655 -0.021949972 -0.019032333000000002
0.36114369 -0.17698351 -0.34962957 -0.18012552 -0.13735329999999998 -0.3138134 -0.39519556 -0.34465947 -0.31354598 -0.27889901 -0.27884146 -0.43379412 -0.59497077 -0.62117654 -0.6793944000000001 -0.81701902 -0.86013889 -0.84316095 -0.89559815 -0.92122324 -0.88928992 -0.9648305 -1.1142478 -1.1620867 -1.1577271 -1.2233045 -1.3407031999999999 -1.4862591 -1.6275197 -1.6469463 -1.5591661 -1.5406761 -1.6107753 -1.6279841999999998 -1.6003671 -1.6350744 -1.6498041 -1.47202 -1.1759175 -1.0049538 -0.9702992 -0.88095065 -0.73201572 -0.63995015 -0.52509206 -0.28096973 -0.062383655 -0.021949972 -0.019032333000000002 0.10383147
-0.17698351 -0.34962957 -0.18012552 -0.13735329999999998 -0.3138134 -0.39519556 -0.34465947 -0.31354598 -0.27889901 -0.27884146 -0.43379412 -0.59497077 -0.62117654 -0.6793944000000001 -0.81701902 -0.86013889 -0.84316095 -0.89559815 -0.92122324 -0.88928992 -0.9648305 -1.1142478 -1.1620867 -1.1577271 -1.2233045 -1.3407031999999999 -1.4862591 -1.6275197 -1.6469463 -1.5591661 -1.5406761 -1.6107753 -1.6279841999999998 -1.6003671 -1.6350744 -1.6498041 -1.47202 -1.1759175 -1.0049538 -0.9702992 -0.88095065 -0.73201572 -0.63995015 -0.52509206 -0.28096973 -0.062383655 -0.021949972 -0.019032333000000002 0.10383147 0.24379633
-0.34962957 -0.18012552 -0.13735329999999998 -0.3138134 -0.39519556 -0.34465947 -0.31354598 -0.27889901 -0.27884146 -0.43379412 -0.59497077 -0.62117654 -0.6793944000000001 -0.81701902 -0.86013889 -0.84316095 -0.89559815 -0.92122324 -0.88928992 -0.9648305 -1.1142478 -1.1620867 -1.1577271 -1.2233045 -1.3407031999999999 -1.4862591 -1.6275197 -1.6469463 -1.5591661 -1.5406761 -1.6107753 -1.6279841999999998 -1.6003671 -1.6350744 -1.6498041 -1.47202 -1.1759175 -1.0049538 -0.9702992 -0.88095065 -0.73201572 -0.63995015 -0.52509206 -0.28096973 -0.062383655 -0.021949972 -0.019032333000000002 0.10383147 0.24379633 0.23786778
-0.18012552 -0.13735329999999998 -0.3138134 -0.39519556 -0.34465947 -0.31354598 -0.27889901 -0.27884146 -0.43379412 -0.59497077 -0.62117654 -0.6793944000000001 -0.81701902 -0.86013889 -0.84316095 -0.89559815 -0.92122324 -0.88928992 -0.9648305 -1.1142478 -1.1620867 -1.1577271 -1.2233045 -1.3407031999999999 -1.4862591 -1.6275197 -1.6469463 -1.5591661 -1.5406761 -1.6107753 -1.6279841999999998 -1.6003671 -1.6350744 -1.6498041 -1.47202 -1.1759175 -1.0049538 -0.9702992 -0.88095065 -0.73201572 -0.63995015 -0.52509206 -0.28096973 -0.062383655 -0.021949972 -0.019032333000000002 0.10383147 0.24379633 0.23786778 0.15650060000000002
-0.13735329999999998 -0.3138134 -0.39519556 -0.34465947 -0.31354598 -0.27889901 -0.27884146 -0.43379412 -0.59497077 -0.62117654 -0.6793944000000001 -0.81701902 -0.86013889 -0.84316095 -0.89559815 -0.92122324 -0.88928992 -0.9648305 -1.1142478 -1.1620867 -1.1577271 -1.2233045 -1.3407031999999999 -1.4862591 -1.6275197 -1.6469463 -1.5591661 -1.5406761 -1.6107753 -1.6279841999999998 -1.6003671 -1.6350744 -1.6498041 -1.47202 -1.1759175 -1.0049538 -0.9702992 -0.88095065 -0.73201572 -0.63995015 -0.52509206 -0.28096973 -0.062383655 -0.021949972 -0.019032333000000002 0.10383147 0.24379633 0.23786778 0.15650060000000002 0.19093237
-0.3138134 -0.39519556 -0.34465947 -0.31354598 -0.27889901 -0.27884146 -0.43379412 -0.59497077 -0.62117654 -0.6793944000000001 -0.81701902 -0.86013889 -0.84316095 -0.89559815 -0.92122324 -0.88928992 -0.9648305 -1.1142478 -1.1620867 -1.1577271 -1.2233045 -1.3407031999999999 -1.4862591 -1.6275197 -1.6469463 -1.5591661 -1.5406761 -1.6107753 -1.6279841999999998 -1.6003671 -1.6350744 -1.6498041 -1.47202 -1.1759175 -1.0049538 -0.9702992 -0.88095065 -0.73201572 -0.63995015 -0.52509206 -0.28096973 -0.062383655 -0.021949972 -0.019032333000000002 0.10383147 0.24379633 0.23786778 0.15650060000000002 0.19093237 0.35307145
-0.39519556 -0.34465947 -0.31354598 -0.27889901 -0.27884146 -0.43379412 -0.59497077 -0.62117654 -0.6793944000000001 -0.81701902 -0.86013889 -0.84316095 -0.89559815 -0.92122324 -0.88928992 -0.9648305 -1.1142478 -1.1620867 -1.1577271 -1.2233045 -1.3407031999999999 -1.4862591 -1.6275197 -1.6469463 -1.5591661 -1.5406761 -1.6107753 -1.6279841999999998 -1.6003671 -1.6350744 -1.6498041 -1.47202 -1.1759175 -1.0049538 -0.9702992 -0.88095065 -0.73201572 -0.63995015 -0.52509206 -0.28096973 -0.062383655 -0.021949972 -0.019032333000000002 0.10383147 0.24379633 0.23786778 0.15650060000000002 0.19093237 0.35307145 0.50156327
-0.34465947 -0.31354598 -0.27889901 -0.27884146 -0.43379412 -0.59497077 -0.62117654 -0.6793944000000001 -0.81701902 -0.86013889 -0.84316095 -0.89559815 -0.92122324 -0.88928992 -0.9648305 -1.1142478 -1.1620867 -1.1577271 -1.2233045 -1.3407031999999999 -1.4862591 -1.6275197 -1.6469463 -1.5591661 -1.5406761 -1.6107753 -1.6279841999999998 -1.6003671 -1.6350744 -1.6498041 -1.47202 -1.1759175 -1.0049538 -0.9702992 -0.88095065 -0.73201572 -0.63995015 -0.52509206 -0.28096973 -0.062383655 -0.021949972 -0.019032333000000002 0.10383147 0.24379633 0.23786778 0.15650060000000002 0.19093237 0.35307145 0.50156327 0.5441835
-0.31354598 -0.27889901 -0.27884146 -0.43379412 -0.59497077 -0.62117654 -0.6793944000000001 -0.81701902 -0.86013889 -0.84316095 -0.89559815 -0.92122324 -0.88928992 -0.9648305 -1.1142478 -1.1620867 -1.1577271 -1.2233045 -1.3407031999999999 -1.4862591 -1.6275197 -1.6469463 -1.5591661 -1.5406761 -1.6107753 -1.6279841999999998 -1.6003671 -1.6350744 -1.6498041 -1.47202 -1.1759175 -1.0049538 -0.9702992 -0.88095065 -0.73201572 -0.63995015 -0.52509206 -0.28096973 -0.062383655 -0.021949972 -0.019032333000000002 0.10383147 0.24379633 0.23786778 0.15650060000000002 0.19093237 0.35307145 0.50156327 0.5441835 0.48843187
-0.27889901 -0.27884146 -0.43379412 -0.59497077 -0.62117654 -0.6793944000000001 -0.81701902 -0.86013889 -0.84316095 -0.89559815 -0.92122324 -0.88928992 -0.9648305 -1.1142478 -1.1620867 -1.1577271 -1.2233045 -1.3407031999999999 -1.4862591 -1.6275197 -1.6469463 -1.5591661 -1.5406761 -1.6107753 -1.6279841999999998 -1.6003671 -1.6350744 -1.6498041 -1.47202 -1.1759175 -1.0049538 -0.9702992 -0.88095065 -0.73201572 -0.63995015 -0.52509206 -0.28096973 -0.062383655 -0.021949972 -0.019032333000000002 0.10383147 0.24379633 0.23786778 0.15650060000000002 0.19093237 0.35307145 0.50156327 0.5441835 0.48843187 0.44293224
-0.27884146 -0.43379412 -0.59497077 -0.62117654 -0.6793944000000001 -0.81701902 -0.86013889 -0.84316095 -0.89559815 -0.92122324 -0.88928992 -0.9648305 -1.1142478 -1.1620867 -1.1577271 -1.2233045 -1.3407031999999999 -1.4862591 -1.6275197 -1.6469463 -1.5591661 -1.5406761 -1.6107753 -1.6279841999999998 -1.6003671 -1.6350744 -1.6498041 -1.47202 -1.1759175 -1.0049538 -0.9702992 -0.88095065 -0.73201572 -0.63995015 -0.52509206 -0.28096973 -0.062383655 -0.021949972 -0.019032333000000002 0.10383147 0.24379633 0.23786778 0.15650060000000002 0.19093237 0.35307145 0.50156327 0.5441835 0.48843187 0.44293224 0.54723574
-0.43379412 -0.59497077 -0.62117654 -0.6793944000000001 -0.81701902 -0.86013889 -0.84316095 -0.89559815 -0.92122324 -0.88928992 -0.9648305 -1.1142478 -1.1620867 -1.1577271 -1.2233045 -1.3407031999999999 -1.4862591 -1.6275197 -1.6469463 -1.5591661 -1.5406761 -1.6107753 -1.6279841999999998 -1.6003671 -1.6350744 -1.6498041 -1.47202 -1.1759175 -1.0049538 -0.9702992 -0.88095065 -0.73201572 -0.63995015 -0.52509206 -0.28096973 -0.062383655 -0.021949972 -0.019032333000000002 0.10383147 0.24379633 0.23786778 0.15650060000000002 0.19093237 0.35307145 0.50156327 0.5441835 0.48843187 0.44293224 0.54723574 0.71845521
-0.59497077 -0.62117654 -0.6793944000000001 -0.81701902 -0.86013889 -0.84316095 -0.89559815 -0.92122324 -0.88928992 -0.9648305 -1.1142478 -1.1620867 -1.1577271 -1.2233045 -1.3407031999999999 -1.4862591 -1.6275197 -1.6469463 -1.5591661 -1.5406761 -1.6107753 -1.6279841999999998 -1.6003671 -1.6350744 -1.6498041 -1.47202 -1.1759175 -1.0049538 -0.9702992 -0.88095065 -0.73201572 -0.63995015 -0.52509206 -0.28096973 -0.062383655 -0.021949972 -0.019032333000000002 0.10383147 0.24379633 0.23786778 0.15650060000000002 0.19093237 0.35307145 0.50156327 0.5441835 0.48843187 0.44293224 0.54723574 0.71845521 0.70815968
-0.62117654 -0.6793944000000001 -0.81701902 -0.86013889 -0.84316095 -0.89559815 -0.92122324 -0.88928992 -0.9648305 -1.1142478 -1.1620867 -1.1577271 -1.2233045 -1.3407031999999999 -1.4862591 -1.6275197 -1.6469463 -1.5591661 -1.5406761 -1.6107753 -1.6279841999999998 -1.6003671 -1.6350744 -1.6498041 -1.47202 -1.1759175 -1.0049538 -0.9702992 -0.88095065 -0.73201572 -0.63995015 -0.52509206 -0.28096973 -0.062383655 -0.021949972 -0.019032333000000002 0.10383147 0.24379633 0.23786778 0.15650060000000002 0.19093237 0.35307145 0.50156327 0.5441835 0.48843187 0.44293224 0.54723574 0.71845521 0.70815968 0.57932866
-0.6793944000000001 -0.81701902 -0.86013889 -0.84316095 -0.89559815 -0.92122324 -0.88928992 -0.9648305 -1.1142478 -1.1620867 -1.1577271 -1.2233045 -1.3407031999999999 -1.4862591 -1.6275197 -1.6469463 -1.5591661 -1.5406761 -1.6107753 -1.6279841999999998 -1.6003671 -1.6350744 -1.6498041 -1.47202 -1.1759175 -1.0049538 -0.9702992 -0.88095065 -0.73201572 -0.63995015 -0.52509206 -0.28096973 -0.062383655 -0.021949972 -0.019032333000000002 0.10383147 0.24379633 0.23786778 0.15650060000000002 0.19093237 0.35307145 0.50156327 0.5441835 0.48843187 0.44293224 0.54723574 0.71845521 0.70815968 0.57932866 0.62876366
-0.81701902 -0.86013889 -0.84316095 -0.89559815 -0.92122324 -0.88928992 -0.9648305 -1.1142478 -1.1620867 -1.1577271 -1.2233045 -1.3407031999999999 -1.4862591 -1.6275197 -1.6469463 -1.5591661 -1.5406761 -1.6107753 -1.6279841999999998 -1.6003671 -1.6350744 -1.6498041 -1.47202 -1.1759175 -1.0049538 -0.9702992 -0.88095065 -0.73201572 -0.63995015 -0.52509206 -0.28096973 -0.062383655 -0.021949972 -0.019032333000000002 0.10383147 0.24379633 0.23786778 0.15650060000000002 0.19093237 0.35307145 0.50156327 0.5441835 0.48843187 0.44293224 0.54723574 0.71845521 0.70815968 0.57932866 0.62876366 0.79178011
-0.86013889 -0.84316095 -0.89559815 -0.92122324 -0.88928992 -0.9648305 -1.1142478 -1.1620867 -1.1577271 -1.2233045 -1.3407031999999999 -1.4862591 -1.6275197 -1.6469463 -1.5591661 -1.5406761 -1.6107753 -1.6279841999999998 -1.6003671 -1.6350744 -1.6498041 -1.47202 -1.1759175 -1.0049538 -0.9702992 -0.88095065 -0.73201572 -0.63995015 -0.52509206 -0.28096973 -0.062383655 -0.021949972 -0.019032333000000002 0.10383147 0.24379633 0.23786778 0.15650060000000002 0.19093237 0.35307145 0.50156327 0.5441835 0.48843187 0.44293224 0.54723574 0.71845521 0.70815968 0.57932866 0.62876366 0.79178011 0.76625982
-0.84316095 -0.89559815 -0.92122324 -0.88928992 -0.9648305 -1.1142478 -1.1620867 -1.1577271 -1.2233045 -1.3407031999999999 -1.4862591 -1.6275197 -1.6469463 -1.5591661 -1.5406761 -1.6107753 -1.6279841999999998 -1.6003671 -1.6350744 -1.6498041 -1.47202 -1.1759175 -1.0049538 -0.9702992 -0.88095065 -0.73201572 -0.63995015 -0.52509206 -0.28096973 -0.062383655 -0.021949972 -0.019032333000000002 0.10383147 0.24379633 0.23786778 0.15650060000000002 0.19093237 0.35307145 0.50156327 0.5441835 0.48843187 0.44293224 0.54723574 0.71845521 0.70815968 0.57932866 0.62876366 0.79178011 0.76625982 0.61005728
-0.89559815 -0.92122324 -0.88928992 -0.9648305 -1.1142478 -1.1620867 -1.1577271 -1.2233045 -1.3407031999999999 -1.4862591 -1.6275197 -1.6469463 -1.5591661 -1.5406761 -1.6107753 -1.6279841999999998 -1.6003671 -1.6350744 -1.6498041 -1.47202 -1.1759175 -1.0049538 -0.9702992 -0.88095065 -0.73201572 -0.63995015 -0.52509206 -0.28096973 -0.062383655 -0.021949972 -0.019032333000000002 0.10383147 0.24379633 0.23786778 0.15650060000000002 0.19093237 0.35307145 0.50156327 0.5441835 0.48843187 0.44293224 0.54723574 0.71845521 0.70815968 0.57932866 0.62876366 0.79178011 0.76625982 0.61005728 0.60152951
-0.92122324 -0.88928992 -0.9648305 -1.1142478 -1.1620867 -1.1577271 -1.2233045 -1.3407031999999999 -1.4862591 -1.6275197 -1.6469463 -1.5591661 -1.5406761 -1.6107753 -1.6279841999999998 -1.6003671 -1.6350744 -1.6498041 -1.47202 -1.1759175 -1.0049538 -0.9702992 -0.88095065 -0.73201572 -0.63995015 -0.52509206 -0.28096973 -0.062383655 -0.021949972 -0.019032333000000002 0.10383147 0.24379633 0.23786778 0.15650060000000002 0.19093237 0.35307145 0.50156327 0.5441835 0.48843187 0.44293224 0.54723574 0.71845521 0.70815968 0.57932866 0.62876366 0.79178011 0.76625982 0.61005728 0.60152951 0.75465614
-0.88928992 -0.9648305 -1.1142478 -1.1620867 -1.1577271 -1.2233045 -1.3407031999999999 -1.4862591 -1.6275197 -1.6469463 -1.5591661 -1.5406761 -1.6107753 -1.6279841999999998 -1.6003671 -1.6350744 -1.6498041 -1.47202 -1.1759175 -1.0049538 -0.9702992 -0.88095065 -0.73201572 -0.63995015 -0.52509206 -0.28096973 -0.062383655 -0.021949972 -0.019032333000000002 0.10383147 0.24379633 0.23786778 0.15650060000000002 0.19093237 0.35307145 0.50156327 0.5441835 0.48843187 0.44293224 0.54723574 0.71845521 0.70815968 0.57932866 0.62876366 0.79178011 0.76625982 0.61005728 0.60152951 0.75465614 0.90416095
-0.9648305 -1.1142478 -1.1620867 -1.1577271 -1.2233045 -1.3407031999999999 -1.4862591 -1.6275197 -1.6469463 -1.5591661 -1.5406761 -1.6107753 -1.6279841999999998 -1.6003671 -1.6350744 -1.6498041 -1.47202 -1.1759175 -1.0049538 -0.9702992 -0.88095065 -0.73201572 -0.63995015 -0.52509206 -0.28096973 -0.062383655 -0.021949972 -0.019032333000000002 0.10383147 0.24379633 0.23786778 0.15650060000000002 0.19093237 0.35307145 0.50156327 0.5441835 0.48843187 0.44293224 0.54723574 0.71845521 0.70815968 0.57932866 0.62876366 0.79178011 0.76625982 0.61005728 0.60152951 0.75465614 0.90416095 1.0213569
-1.1142478 -1.1620867 -1.1577271 -1.2233045 -1.3407031999999999 -1.4862591 -1.6275197 -1.6469463 -1.5591661 -1.5406761 -1.6107753 -1.6279841999999998 -1.6003671 -1.6350744 -1.6498041 -1.47202 -1.1759175 -1.0049538 -0.9702992 -0.88095065 -0.73201572 -0.63995015 -0.52509206 -0.28096973 -0.062383655 -0.021949972 -0.019032333000000002 0.10383147 0.24379633 0.23786778 0.15650060000000002 0.19093237 0.35307145 0.50156327 0.5441835 0.48843187 0.44293224 0.54723574 0.71845521 0.70815968 0.57932866 0.62876366 0.79178011 0.76625982 0.61005728 0.60152951 0.75465614 0.90416095 1.0213569 1.1079595
-1.1620867 -1.1577271 -1.2233045 -1.3407031999999999 -1.4862591 -1.6275197 -1.6469463 -1.5591661 -1.5406761 -1.6107753 -1.6279841999999998 -1.6003671 -1.6350744 -1.6498041 -1.47202 -1.1759175 -1.0049538 -0.9702992 -0.88095065 -0.73201572 -0.63995015 -0.52509206 -0.28096973 -0.062383655 -0.021949972 -0.019032333000000002 0.10383147 0.24379633 0.23786778 0.15650060000000002 0.19093237 0.35307145 0.50156327 0.5441835 0.48843187 0.44293224 0.54723574 0.71845521 0.70815968 0.57932866 0.62876366 0.79178011 0.76625982 0.61005728 0.60152951 0.75465614 0.90416095 1.0213569 1.1079595 1.0623296
-1.1577271 -1.2233045 -1.3407031999999999 -1.4862591 -1.6275197 -1.6469463 -1.5591661 -1.5406761 -1.6107753 -1.6279841999999998 -1.6003671 -1.6350744 -1.6498041 -1.47202 -1.1759175 -1.0049538 -0.9702992 -0.88095065 -0.73201572 -0.63995015 -0.52509206 -0.28096973 -0.062383655 -0.021949972 -0.019032333000000002 0.10383147 0.24379633 0.23786778 0.15650060000000002 0.19093237 0.35307145 0.50156327 0.5441835 0.48843187 0.44293224 0.54723574 0.71845521 0.70815968 0.57932866 0.62876366 0.79178011 0.76625982 0.61005728 0.60152951 0.75465614 0.90416095 1.0213569 1.1079595 1.0623296 0.89330866
-1.2233045 -1.3407031999999999 -1.4862591 -1.6275197 -1.6469463 -1.5591661 -1.5406761 -1.6107753 -1.6279841999999998 -1.6003671 -1.6350744 -1.6498041 -1.47202 -1.1759175 -1.0049538 -0.9702992 -0.88095065 -0.73201572 -0.63995015 -0.52509206 -0.28096973 -0.062383655 -0.021949972 -0.019032333000000002 0.10383147 0.24379633 0.23786778 0.15650060000000002 0.19093237 0.35307145 0.50156327 0.5441835 0.48843187 0.44293224 0.54723574 0.71845521 0.70815968 0.57932866 0.62876366 0.79178011 0.76625982 0.61005728 0.60152951 0.75465614 0.90416095 1.0213569 1.1079595 1.0623296 0.89330866 0.79984596
-1.3407031999999999 -1.4862591 -1.6275197 -1.6469463 -1.5591661 -1.5406761 -1.6107753 -1.6279841999999998 -1.6003671 -1.6350744 -1.6498041 -1.47202 -1.1759175 -1.0049538 -0.9702992 -0.88095065 -0.73201572 -0.63995015 -0.52509206 -0.28096973 -0.062383655 -0.021949972 -0.019032333000000002 0.10383147 0.24379633 0.23786778 0.15650060000000002 0.19093237 0.35307145 0.50156327 0.5441835 0.48843187 0.44293224 0.54723574 0.71845521 0.70815968 0.57932866 0.62876366 0.79178011 0.76625982 0.61005728 0.60152951 0.75465614 0.90416095 1.0213569 1.1079595 1.0623296 0.89330866 0.79984596 0.83840082
-1.4862591 -1.6275197 -1.6469463 -1.5591661 -1.5406761 -1.6107753 -1.6279841999999998 -1.6003671 -1.6350744 -1.6498041 -1.47202 -1.1759175 -1.0049538 -0.9702992 -0.88095065 -0.73201572 -0.63995015 -0.52509206 -0.28096973 -0.062383655 -0.021949972 -0.019032333000000002 0.10383147 0.24379633 0.23786778 0.15650060000000002 0.19093237 0.35307145 0.50156327 0.5441835 0.48843187 0.44293224 0.54723574 0.71845521 0.70815968 0.57932866 0.62876366 0.79178011 0.76625982 0.61005728 0.60152951 0.75465614 0.90416095 1.0213569 1.1079595 1.0623296 0.89330866 0.79984596 0.83840082 0.81934987
-1.6275197 -1.6469463 -1.5591661 -1.5406761 -1.6107753 -1.6279841999999998 -1.6003671 -1.6350744 -1.6498041 -1.47202 -1.1759175 -1.0049538 -0.9702992 -0.88095065 -0.73201572 -0.63995015 -0.52509206 -0.28096973 -0.062383655 -0.021949972 -0.019032333000000002 0.10383147 0.24379633 0.23786778 0.15650060000000002 0.19093237 0.35307145 0.50156327 0.5441835 0.48843187 0.44293224 0.54723574 0.71845521 0.70815968 0.57932866 0.62876366 0.79178011 0.76625982 0.61005728 0.60152951 0.75465614 0.90416095 1.0213569 1.1079595 1.0623296 0.89330866 0.79984596 0.83840082 0.81934987 0.70344962
-1.6469463 -1.5591661 -1.5406761 -1.6107753 -1.6279841999999998 -1.6003671 -1.6350744 -1.6498041 -1.47202 -1.1759175 -1.0049538 -0.9702992 -0.88095065 -0.73201572 -0.63995015 -0.52509206 -0.28096973 -0.062383655 -0.021949972 -0.019032333000000002 0.10383147 0.24379633 0.23786778 0.15650060000000002 0.19093237 0.35307145 0.50156327 0.5441835 0.48843187 0.44293224 0.54723574 0.71845521 0.70815968 0.57932866 0.62876366 0.79178011 0.76625982 0.61005728 0.60152951 0.75465614 0.90416095 1.0213569 1.1079595 1.0623296 0.89330866 0.79984596 0.83840082 0.81934987 0.70344962 0.7430916999999999
-1.5591661 -1.5406761 -1.6107753 -1.6279841999999998 -1.6003671 -1.6350744 -1.6498041 -1.47202 -1.1759175 -1.0049538 -0.9702992 -0.88095065 -0.73201572 -0.63995015 -0.52509206 -0.28096973 -0.062383655 -0.021949972 -0.019032333000000002 0.10383147 0.24379633 0.23786778 0.15650060000000002 0.19093237 0.35307145 0.50156327 0.5441835 0.48843187 0.44293224 0.54723574 0.71845521 0.70815968 0.57932866 0.62876366 0.79178011 0.76625982 0.61005728 0.60152951 0.75465614 0.90416095 1.0213569 1.1079595 1.0623296 0.89330866 0.79984596 0.83840082 0.81934987 0.70344962 0.7430916999999999 1.0056726
-1.5406761 -1.6107753 -1.6279841999999998 -1.6003671 -1.6350744 -1.6498041 -1.47202 -1.1759175 -1.0049538 -0.9702992 -0.88095065 -0.73201572 -0.63995015 -0.52509206 -0.28096973 -0.062383655 -0.021949972 -0.019032333000000002 0.10383147 0.24379633 0.23786778 0.15650060000000002 0.19093237 0.35307145 0.50156327 0.5441835 0.48843187 0.44293224 0.54723574 0.71845521 0.70815968 0.57932866 0.62876366 0.79178011 0.76625982 0.61005728 0.60152951 0.75465614 0.90416095 1.0213569 1.1079595 1.0623296 0.89330866 0.79984596 0.83840082 0.81934987 0.70344962 0.7430916999999999 1.0056726 1.1647486
-1.6107753 -1.6279841999999998 -1.6003671 -1.6350744 -1.6498041 -1.47202 -1.1759175 -1.0049538 -0.9702992 -0.88095065 -0.73201572 -0.63995015 -0.52509206 -0.28096973 -0.062383655 -0.021949972 -0.019032333000000002 0.10383147 0.24379633 0.23786778 0.15650060000000002 0.19093237 0.35307145 0.50156327 0.5441835 0.48843187 0.44293224 0.54723574 0.71845521 0.70815968 0.57932866 0.62876366 0.79178011 0.76625982 0.61005728 0.60152951 0.75465614 0.90416095 1.0213569 1.1079595 1.0623296 0.89330866 0.79984596 0.83840082 0.81934987 0.70344962 0.7430916999999999 1.0056726 1.1647486 1.0658566999999999
-1.6279841999999998 -1.6003671 -1.6350744 -1.6498041 -1.47202 -1.1759175 -1.0049538 -0.9702992 -0.88095065 -0.73201572 -0.63995015 -0.52509206 -0.28096973 -0.062383655 -0.021949972 -0.019032333000000002 0.10383147 0.24379633 0.23786778 0.15650060000000002 0.19093237 0.35307145 0.50156327 0.5441835 0.48843187 0.44293224 0.54723574 0.71845521 0.70815968 0.57932866 0.62876366 0.79178011 0.76625982 0.61005728 0.60152951 0.75465614 0.90416095 1.0213569 1.1079595 1.0623296 0.89330866 0.79984596 0.83840082 0.81934987 0.70344962 0.7430916999999999 1.0056726 1.1647486 1.0658566999999999 1.0470411
-1.6003671 -1.6350744 -1.6498041 -1.47202 -1.1759175 -1.0049538 -0.9702992 -0.88095065 -0.73201572 -0.63995015 -0.52509206 -0.28096973 -0.062383655 -0.021949972 -0.019032333000000002 0.10383147 0.24379633 0.23786778 0.15650060000000002 0.19093237 0.35307145 0.50156327 0.5441835 0.48843187 0.44293224 0.54723574 0.71845521 0.70815968 0.57932866 0.62876366 0.79178011 0.76625982 0.61005728 0.60152951 0.75465614 0.90416095 1.0213569 1.1079595 1.0623296 0.89330866 0.79984596 0.83840082 0.81934987 0.70344962 0.7430916999999999 1.0056726 1.1647486 1.0658566999999999 1.0470411 1.2694538
-1.6350744 -1.6498041 -1.47202 -1.1759175 -1.0049538 -0.9702992 -0.88095065 -0.73201572 -0.63995015 -0.52509206 -0.28096973 -0.062383655 -0.021949972 -0.019032333000000002 0.10383147 0.24379633 0.23786778 0.15650060000000002 0.19093237 0.35307145 0.50156327 0.5441835 0.48843187 0.44293224 0.54723574 0.71845521 0.70815968 0.57932866 0.62876366 0.79178011 0.76625982 0.61005728 0.60152951 0.75465614 0.90416095 1.0213569 1.1079595 1.0623296 0.89330866 0.79984596 0.83840082 0.81934987 0.70344962 0.7430916999999999 1.0056726 1.1647486 1.0658566999999999 1.0470411 1.2694538 1.2243422
-1.6498041 -1.47202 -1.1759175 -1.0049538 -0.9702992 -0.88095065 -0.73201572 -0.63995015 -0.52509206 -0.28096973 -0.062383655 -0.021949972 -0.019032333000000002 0.10383147 0.24379633 0.23786778 0.15650060000000002 0.19093237 0.35307145 0.50156327 0.5441835 0.48843187 0.44293224 0.54723574 0.71845521 0.70815968 0.57932866 0.62876366 0.79178011 0.76625982 0.61005728 0.60152951 0.75465614 0.90416095 1.0213569 1.1079595 1.0623296 0.89330866 0.79984596 0.83840082 0.81934987 0.70344962 0.7430916999999999 1.0056726 1.1647486 1.0658566999999999 1.0470411 1.2694538 1.2243422 0.56942382
