0.58127681 0.87618758 1.0427672 1.7961197 2.5413991 2.2466526 1.5003868999999999 1.0315208 0.38267199 -0.19756134 -0.16993849 0.01144398 -0.014047002 -0.076610835 -0.060981187 0.091619691 0.22472284 -0.01356082 -0.47678065 -0.65884966 -0.67497174 -0.83289751 -0.85054084 -0.73707682 -0.80863656 -0.87081929 -0.89387103 -1.0535721000000002 -1.1644873 -1.1868895000000002 -1.171606 -1.1302896999999998 -1.2804719 -1.4578255 -1.4537981000000002 -1.5607523 -1.7141015 -1.7409582 -1.8769725 -1.9752459 -1.8498089 -1.8544701000000001 -1.9398877 -1.6467192 -1.2572351000000002 -1.2498011 -1.2151296 -0.92686749 -0.7684571 -0.54259414
0.87618758 1.0427672 1.7961197 2.5413991 2.2466526 1.5003868999999999 1.0315208 0.38267199 -0.19756134 -0.16993849 0.01144398 -0.014047002 -0.076610835 -0.060981187 0.091619691 0.22472284 -0.01356082 -0.47678065 -0.65884966 -0.67497174 -0.83289751 -0.85054084 -0.73707682 -0.80863656 -0.87081929 -0.89387103 -1.0535721000000002 -1.1644873 -1.1868895000000002 -1.171606 -1.1302896999999998 -1.2804719 -1.4578255 -1.4537981000000002 -1.5607523 -1.7141015 -1.7409582 -1.8769725 -1.9752459 -1.8498089 -1.8544701000000001 -1.9398877 -1.6467192 -1.2572351000000002 -1.2498011 -1.2151296 -0.92686749 -0.7684571 -0.54259414 -0.20504068
1.0427672 1.7961197 2.5413991 2.2466526 1.5003868999999999 1.0315208 0.38267199 -0.19756134 -0.16993849 0.01144398 -0.014047002 -0.076610835 -0.060981187 0.091619691 0.22472284 -0.01356082 -0.47678065 -0.65884966 -0.67497174 -0.83289751 -0.85054084 -0.73707682 -0.80863656 -0.87081929 -0.89387103 -1.0535721000000002 -1.1644873 -1.1868895000000002 -1.171606 -1.1302896999999998 -1.2804719 -1.4578255 -1.4537981000000002 -1.5607523 -1.7141015 -1.7409582 -1.8769725 -1.9752459 -1.8498089 -1.8544701000000001 -1.9398877 -1.6467192 -1.2572351000000002 -1.2498011 -1.2151296 -0.92686749 -0.7684571 -0.54259414 -0.20504068 -0.1419683
1.7961197 2.5413991 2.2466526 1.5003868999999999 1.0315208 0.38267199 -0.19756134 -0.16993849 0.01144398 -0.014047002 -0.076610835 -0.060981187 0.091619691 0.22472284 -0.01356082 -0.47678065 -0.65884966 -0.67497174 -0.83289751 -0.85054084 -0.73707682 -0.80863656 -0.87081929 -0.89387103 -1.0535721000000002 -1.1644873 -1.1868895000000002 -1.171606 -1.1302896999999998 -1.2804719 -1.4578255 -1.4537981000000002 -1.5607523 -1.7141015 -1.7409582 -1.8769725 -1.9752459 -1.8498089 -1.8544701000000001 -1.9398877 -1.6467192 -1.2572351000000002 -1.2498011 -1.2151296 -0.92686749 -0.7684571 -0.54259414 -0.20504068 -0.1419683 0.032076295
2.5413991 2.2466526 1.5003868999999999 1.0315208 0.38267199 -0.19756134 -0.16993849 0.01144398 -0.014047002 -0.076610835 -0.060981187 0.091619691 0.22472284 -0.01356082 -0.47678065 -0.65884966 -0.67497174 -0.83289751 -0.85054084 -0.73707682 -0.80863656 -0.87081929 -0.89387103 -1.0535721000000002 -1.1644873 -1.1868895000000002 -1.171606 -1.1302896999999998 -1.2804719 -1.4578255 -1.4537981000000002 -1.5607523 -1.7141015 -1.7409582 -1.8769725 -1.9752459 -1.8498089 -1.8544701000000001 -1.9398877 -1.6467192 -1.2572351000000002 -1.2498011 -1.2151296 -0.92686749 -0.7684571 -0.54259414 -0.20504068 -0.1419683 0.032076295 0.38084395
2.2466526 1.5003868999999999 1.0315208 0.38267199 -0.19756134 -0.16993849 0.01144398 -0.014047002 -0.076610835 -0.060981187 0.091619691 0.22472284 -0.01356082 -0.47678065 -0.65884966 -0.67497174 -0.83289751 -0.85054084 -0.73707682 -0.80863656 -0.87081929 -0.89387103 -1.0535721000000002 -1.1644873 -1.1868895000000002 -1.171606 -1.1302896999999998 -1.2804719 -1.4578255 -1.4537981000000002 -1.5607523 -1.7141015 -1.7409582 -1.8769725 -1.9752459 -1.8498089 -1.8544701000000001 -1.9398877 -1.6467192 -1.2572351000000002 -1.2498011 -1.2151296 -0.92686749 -0.7684571 -0.54259414 -0.20504068 -0.1419683 0.032076295 0.38084395 0.44776824
1.5003868999999999 1.0315208 0.38267199 -0.19756134 -0.16993849 0.01144398 -0.014047002 -0.076610835 -0.060981187 0.091619691 0.22472284 -0.01356082 -0.47678065 -0.65884966 -0.67497174 -0.83289751 -0.85054084 -0.73707682 -0.80863656 -0.87081929 -0.89387103 -1.0535721000000002 -1.1644873 -1.1868895000000002 -1.171606 -1.1302896999999998 -1.2804719 -1.4578255 -1.4537981000000002 -1.5607523 -1.7141015 -1.7409582 -1.8769725 -1.9752459 -1.8498089 -1.8544701000000001 -1.9398877 -1.6467192 -1.2572351000000002 -1.2498011 -1.2151296 -0.92686749 -0.7684571 -0.54259414 -0.20504068 -0.1419683 0.032076295 0.38084395 0.44776824 0.53223706
1.0315208 0.38267199 -0.19756134 -0.16993849 0.01144398 -0.014047002 -0.076610835 -0.060981187 0.091619691 0.22472284 -0.01356082 -0.47678065 -0.65884966 -0.67497174 -0.83289751 -0.85054084 -0.73707682 -0.80863656 -0.87081929 -0.89387103 -1.0535721000000002 -1.1644873 -1.1868895000000002 -1.171606 -1.1302896999999998 -1.2804719 -1.4578255 -1.4537981000000002 -1.5607523 -1.7141015 -1.7409582 -1.8769725 -1.9752459 -1.8498089 -1.8544701000000001 -1.9398877 -1.6467192 -1.2572351000000002 -1.2498011 -1.2151296 -0.92686749 -0.7684571 -0.54259414 -0.20504068 -0.1419683 0.032076295 0.38084395 0.44776824 0.53223706 0.6235314999999999
0.38267199 -0.19756134 -0.16993849 0.01144398 -0.014047002 -0.076610835 -0.060981187 0.091619691 0.22472284 -0.01356082 -0.47678065 -0.65884966 -0.67497174 -0.83289751 -0.85054084 -0.73707682 -0.80863656 -0.87081929 -0.89387103 -1.0535721000000002 -1.1644873 -1.1868895000000002 -1.171606 -1.1302896999999998 -1.2804719 -1.4578255 -1.4537981000000002 -1.5607523 -1.7141015 -1.7409582 -1.8769725 -1.9752459 -1.8498089 -1.8544701000000001 -1.9398877 -1.6467192 -1.2572351000000002 -1.2498011 -1.2151296 -0.92686749 -0.7684571 -0.54259414 -0.20504068 -0.1419683 0.032076295 0.38084395 0.44776824 0.53223706 0.6235314999999999 0.51215621
-0.19756134 -0.16993849 0.01144398 -0.014047002 -0.076610835 -0.060981187 0.091619691 0.22472284 -0.01356082 -0.47678065 -0.65884966 -0.67497174 -0.83289751 -0.85054084 -0.73707682 -0.80863656 -0.87081929 -0.89387103 -1.0535721000000002 -1.1644873 -1.1868895000000002 -1.171606 -1.1302896999999998 -1.2804719 -1.4578255 -1.4537981000000002 -1.5607523 -1.7141015 -1.7409582 -1.8769725 -1.9752459 -1.8498089 -1.8544701000000001 -1.9398877 -1.6467192 -1.2572351000000002 -1.2498011 -1.2151296 -0.92686749 -0.7684571 -0.54259414 -0.20504068 -0.1419683 0.032076295 0.38084395 0.44776824 0.53223706 0.6235314999999999 0.51215621 0.68879071
-0.16993849 0.01144398 -0.014047002 -0.076610835 -0.060981187 0.091619691 0.22472284 -0.01356082 -0.47678065 -0.65884966 -0.67497174 -0.83289751 -0.85054084 -0.73707682 -0.80863656 -0.87081929 -0.89387103 -1.0535721000000002 -1.1644873 -1.1868895000000002 -1.171606 -1.1302896999999998 -1.2804719 -1.4578255 -1.4537981000000002 -1.5607523 -1.7141015 -1.7409582 -1.8769725 -1.9752459 -1.8498089 -1.8544701000000001 -1.9398877 -1.6467192 -1.2572351000000002 -1.2498011 -1.2151296 -0.92686749 -0.7684571 -0.54259414 -0.20504068 -0.1419683 0.032076295 0.38084395 0.44776824 0.53223706 0.6235314999999999 0.51215621 0.68879071 0.94772035
0.01144398 -0.014047002 -0.076610835 -0.060981187 0.091619691 0.22472284 -0.01356082 -0.47678065 -0.65884966 -0.67497174 -0.83289751 -0.85054084 -0.73707682 -0.80863656 -0.87081929 -0.89387103 -1.0535721000000002 -1.1644873 -1.1868895000000002 -1.171606 -1.1302896999999998 -1.2804719 -1.4578255 -1.4537981000000002 -1.5607523 -1.7141015 -1.7409582 -1.8769725 -1.9752459 -1.8498089 -1.8544701000000001 -1.9398877 -1.6467192 -1.2572351000000002 -1.2498011 -1.2151296 -0.92686749 -0.7684571 -0.54259414 -0.20504068 -0.1419683 0.032076295 0.38084395 0.44776824 0.53223706 0.6235314999999999 0.51215621 0.68879071 0.94772035 0.8274123999999999
-0.014047002 -0.076610835 -0.060981187 0.091619691 0.22472284 -0.01356082 -0.47678065 -0.65884966 -0.67497174 -0.83289751 -0.85054084 -0.73707682 -0.80863656 -0.87081929 -0.89387103 -1.0535721000000002 -1.1644873 -1.1868895000000002 -1.171606 -1.1302896999999998 -1.2804719 -1.4578255 -1.4537981000000002 -1.5607523 -1.7141015 -1.7409582 -1.8769725 -1.9752459 -1.8498089 -1.8544701000000001 -1.9398877 -1.6467192 -1.2572351000000002 -1.2498011 -1.2151296 -0.92686749 -0.7684571 -0.54259414 -0.20504068 -0.1419683 0.032076295 0.38084395 0.44776824 0.53223706 0.6235314999999999 0.51215621 0.68879071 0.94772035 0.8274123999999999 0.72960427
-0.076610835 -0.060981187 0.091619691 0.22472284 -0.01356082 -0.47678065 -0.65884966 -0.67497174 -0.83289751 -0.85054084 -0.73707682 -0.80863656 -0.87081929 -0.89387103 -1.0535721000000002 -1.1644873 -1.1868895000000002 -1.171606 -1.1302896999999998 -1.2804719 -1.4578255 -1.4537981000000002 -1.5607523 -1.7141015 -1.7409582 -1.8769725 -1.9752459 -1.8498089 -1.8544701000000001 -1.9398877 -1.6467192 -1.2572351000000002 -1.2498011 -1.2151296 -0.92686749 -0.7684571 -0.54259414 -0.20504068 -0.1419683 0.032076295 0.38084395 0.44776824 0.53223706 0.6235314999999999 0.51215621 0.68879071 0.94772035 0.8274123999999999 0.72960427 0.71119979
-0.060981187 0.091619691 0.22472284 -0.01356082 -0.47678065 -0.65884966 -0.67497174 -0.83289751 -0.85054084 -0.73707682 -0.80863656 -0.87081929 -0.89387103 -1.0535721000000002 -1.1644873 -1.1868895000000002 -1.171606 -1.1302896999999998 -1.2804719 -1.4578255 -1.4537981000000002 -1.5607523 -1.7141015 -1.7409582 -1.8769725 -1.9752459 -1.8498089 -1.8544701000000001 -1.9398877 -1.6467192 -1.2572351000000002 -1.2498011 -1.2151296 -0.92686749 -0.7684571 -0.54259414 -0.20504068 -0.1419683 0.032076295 0.38084395 0.44776824 0.53223706 0.6235314999999999 0.51215621 0.68879071 0.94772035 0.8274123999999999 0.72960427 0.71119979 0.57064342
0.091619691 0.22472284 -0.01356082 -0.47678065 -0.65884966 -0.67497174 -0.83289751 -0.85054084 -0.73707682 -0.80863656 -0.87081929 -0.89387103 -1.0535721000000002 -1.1644873 -1.1868895000000002 -1.171606 -1.1302896999999998 -1.2804719 -1.4578255 -1.4537981000000002 -1.5607523 -1.7141015 -1.7409582 -1.8769725 -1.9752459 -1.8498089 -1.8544701000000001 -1.9398877 -1.6467192 -1.2572351000000002 -1.2498011 -1.2151296 -0.92686749 -0.7684571 -0.54259414 -0.20504068 -0.1419683 0.032076295 0.38084395 0.44776824 0.53223706 0.6235314999999999 0.51215621 0.68879071 0.94772035 0.8274123999999999 0.72960427 0.71119979 0.57064342 0.59894443
0.22472284 -0.01356082 -0.47678065 -0.65884966 -0.67497174 -0.83289751 -0.85054084 -0.73707682 -0.80863656 -0.87081929 -0.89387103 -1.0535721000000002 -1.1644873 -1.1868895000000002 -1.171606 -1.1302896999999998 -1.2804719 -1.4578255 -1.4537981000000002 -1.5607523 -1.7141015 -1.7409582 -1.8769725 -1.9752459 -1.8498089 -1.8544701000000001 -1.9398877 -1.6467192 -1.2572351000000002 -1.2498011 -1.2151296 -0.92686749 -0.7684571 -0.54259414 -0.20504068 -0.1419683 0.032076295 0.38084395 0.44776824 0.53223706 0.6235314999999999 0.51215621 0.68879071 0.94772035 0.8274123999999999 0.72960427 0.71119979 0.57064342 0.59894443 0.76494881
-0.01356082 -0.47678065 -0.65884966 -0.67497174 -0.83289751 -0.85054084 -0.73707682 -0.80863656 -0.87081929 -0.89387103 -1.0535721000000002 -1.1644873 -1.1868895000000002 -1.171606 -1.1302896999999998 -1.2804719 -1.4578255 -1.4537981000000002 -1.5607523 -1.7141015 -1.7409582 -1.8769725 -1.9752459 -1.8498089 -1.8544701000000001 -1.9398877 -1.6467192 -1.2572351000000002 -1.2498011 -1.2151296 -0.92686749 -0.7684571 -0.54259414 -0.20504068 -0.1419683 0.032076295 0.38084395 0.44776824 0.53223706 0.6235314999999999 0.51215621 0.68879071 0.94772035 0.8274123999999999 0.72960427 0.71119979 0.57064342 0.59894443 0.76494881 0.71934306
-0.47678065 -0.65884966 -0.67497174 -0.83289751 -0.85054084 -0.73707682 -0.80863656 -0.87081929 -0.89387103 -1.0535721000000002 -1.1644873 -1.1868895000000002 -1.171606 -1.1302896999999998 -1.2804719 -1.4578255 -1.4537981000000002 -1.5607523 -1.7141015 -1.7409582 -1.8769725 -1.9752459 -1.8498089 -1.8544701000000001 -1.9398877 -1.6467192 -1.2572351000000002 -1.2498011 -1.2151296 -0.92686749 -0.7684571 -0.54259414 -0.20504068 -0.1419683 0.032076295 0.38084395 0.44776824 0.53223706 0.6235314999999999 0.51215621 0.68879071 0.94772035 0.8274123999999999 0.72960427 0.71119979 0.57064342 0.59894443 0.76494881 0.71934306 0.5633234
-0.65884966 -0.67497174 -0.83289751 -0.85054084 -0.73707682 -0.80863656 -0.87081929 -0.89387103 -1.0535721000000002 -1.1644873 -1.1868895000000002 -1.171606 -1.1302896999999998 -1.2804719 -1.4578255 -1.4537981000000002 -1.5607523 -1.7141015 -1.7409582 -1.8769725 -1.9752459 -1.8498089 -1.8544701000000001 -1.9398877 -1.6467192 -1.2572351000000002 -1.2498011 -1.2151296 -0.92686749 -0.7684571 -0.54259414 -0.20504068 -0.1419683 0.032076295 0.38084395 0.44776824 0.53223706 0.6235314999999999 0.51215621 0.68879071 0.94772035 0.8274123999999999 0.72960427 0.71119979 0.57064342 0.59894443 0.76494881 0.71934306 0.5633234 0.51730475
-0.67497174 -0.83289751 -0.85054084 -0.73707682 -0.80863656 -0.87081929 -0.89387103 -1.0535721000000002 -1.1644873 -1.1868895000000002 -1.171606 -1.1302896999999998 -1.2804719 -1.4578255 -1.4537981000000002 -1.5607523 -1.7141015 -1.7409582 -1.8769725 -1.9752459 -1.8498089 -1.8544701000000001 -1.9398877 -1.6467192 -1.2572351000000002 -1.2498011 -1.2151296 -0.92686749 -0.7684571 -0.54259414 -0.20504068 -0.1419683 0.032076295 0.38084395 0.44776824 0.53223706 0.6235314999999999 0.51215621 0.68879071 0.94772035 0.8274123999999999 0.72960427 0.71119979 0.57064342 0.59894443 0.76494881 0.71934306 0.5633234 0.51730475 0.49819486
-0.83289751 -0.85054084 -0.73707682 -0.80863656 -0.87081929 -0.89387103 -1.0535721000000002 -1.1644873 -1.1868895000000002 -1.171606 -1.1302896999999998 -1.2804719 -1.4578255 -1.4537981000000002 -1.5607523 -1.7141015 -1.7409582 -1.8769725 -1.9752459 -1.8498089 -1.8544701000000001 -1.9398877 -1.6467192 -1.2572351000000002 -1.2498011 -1.2151296 -0.92686749 -0.7684571 -0.54259414 -0.20504068 -0.1419683 0.032076295 0.38084395 0.44776824 0.53223706 0.6235314999999999 0.51215621 0.68879071 0.94772035 0.8274123999999999 0.72960427 0.71119979 0.57064342 0.59894443 0.76494881 0.71934306 0.5633234 0.51730475 0.49819486 0.50454372
-0.85054084 -0.73707682 -0.80863656 -0.87081929 -0.89387103 -1.0535721000000002 -1.1644873 -1.1868895000000002 -1.171606 -1.1302896999999998 -1.2804719 -1.4578255 -1.4537981000000002 -1.5607523 -1.7141015 -1.7409582 -1.8769725 -1.9752459 -1.8498089 -1.8544701000000001 -1.9398877 -1.6467192 -1.2572351000000002 -1.2498011 -1.2151296 -0.92686749 -0.7684571 -0.54259414 -0.20504068 -0.1419683 0.032076295 0.38084395 0.44776824 0.53223706 0.6235314999999999 0.51215621 0.68879071 0.94772035 0.8274123999999999 0.72960427 0.71119979 0.57064342 0.59894443 0.76494881 0.71934306 0.5633234 0.51730475 0.49819486 0.50454372 0.59124855
-0.73707682 -0.80863656 -0.87081929 -0.89387103 -1.0535721000000002 -1.1644873 -1.1868895000000002 -1.171606 -1.1302896999999998 -1.2804719 -1.4578255 -1.4537981000000002 -1.5607523 -1.7141015 -1.7409582 -1.8769725 -1.9752459 -1.8498089 -1.8544701000000001 -1.9398877 -1.6467192 -1.2572351000000002 -1.2498011 -1.2151296 -0.92686749 -0.7684571 -0.54259414 -0.20504068 -0.1419683 0.032076295 0.38084395 0.44776824 0.53223706 0.6235314999999999 0.51215621 0.68879071 0.94772035 0.8274123999999999 0.72960427 0.71119979 0.57064342 0.59894443 0.76494881 0.71934306 0.5633234 0.51730475 0.49819486 0.50454372 0.59124855 0.56237854
-0.80863656 -0.87081929 -0.89387103 -1.0535721000000002 -1.1644873 -1.1868895000000002 -1.171606 -1.1302896999999998 -1.2804719 -1.4578255 -1.4537981000000002 -1.5607523 -1.7141015 -1.7409582 -1.8769725 -1.9752459 -1.8498089 -1.8544701000000001 -1.9398877 -1.6467192 -1.2572351000000002 -1.2498011 -1.2151296 -0.92686749 -0.7684571 -0.54259414 -0.20504068 -0.1419683 0.032076295 0.38084395 0.44776824 0.53223706 0.6235314999999999 0.51215621 0.68879071 0.94772035 0.8274123999999999 0.72960427 0.71119979 0.57064342 0.59894443 0.76494881 0.71934306 0.5633234 0.51730475 0.49819486 0.50454372 0.59124855 0.56237854 0.44703778
-0.87081929 -0.89387103 -1.0535721000000002 -1.1644873 -1.1868895000000002 -1.171606 -1.1302896999999998 -1.2804719 -1.4578255 -1.4537981000000002 -1.5607523 -1.7141015 -1.7409582 -1.8769725 -1.9752459 -1.8498089 -1.8544701000000001 -1.9398877 -1.6467192 -1.2572351000000002 -1.2498011 -1.2151296 -0.92686749 -0.7684571 -0.54259414 -0.20504068 -0.1419683 0.032076295 0.38084395 0.44776824 0.53223706 0.6235314999999999 0.51215621 0.68879071 0.94772035 0.8274123999999999 0.72960427 0.71119979 0.57064342 0.59894443 0.76494881 0.71934306 0.5633234 0.51730475 0.49819486 0.50454372 0.59124855 0.56237854 0.44703778 0.45239829
-0.89387103 -1.0535721000000002 -1.1644873 -1.1868895000000002 -1.171606 -1.1302896999999998 -1.2804719 -1.4578255 -1.4537981000000002 -1.5607523 -1.7141015 -1.7409582 -1.8769725 -1.9752459 -1.8498089 -1.8544701000000001 -1.9398877 -1.6467192 -1.2572351000000002 -1.2498011 -1.2151296 -0.92686749 -0.7684571 -0.54259414 -0.20504068 -0.1419683 0.032076295 0.38084395 0.44776824 0.53223706 0.6235314999999999 0.51215621 0.68879071 0.94772035 0.8274123999999999 0.72960427 0.71119979 0.57064342 0.59894443 0.76494881 0.71934306 0.5633234 0.51730475 0.49819486 0.50454372 0.59124855 0.56237854 0.44703778 0.45239829 0.44070010000000004
-1.0535721000000002 -1.1644873 -1.1868895000000002 -1.171606 -1.1302896999999998 -1.2804719 -1.4578255 -1.4537981000000002 -1.5607523 -1.7141015 -1.7409582 -1.8769725 -1.9752459 -1.8498089 -1.8544701000000001 -1.9398877 -1.6467192 -1.2572351000000002 -1.2498011 -1.2151296 -0.92686749 -0.7684571 -0.54259414 -0.20504068 -0.1419683 0.032076295 0.38084395 0.44776824 0.53223706 0.6235314999999999 0.51215621 0.68879071 0.94772035 0.8274123999999999 0.72960427 0.71119979 0.57064342 0.59894443 0.76494881 0.71934306 0.5633234 0.51730475 0.49819486 0.50454372 0.59124855 0.56237854 0.44703778 0.45239829 0.44070010000000004 0.44913373
-1.1644873 -1.1868895000000002 -1.171606 -1.1302896999999998 -1.2804719 -1.4578255 -1.4537981000000002 -1.5607523 -1.7141015 -1.7409582 -1.8769725 -1.9752459 -1.8498089 -1.8544701000000001 -1.9398877 -1.6467192 -1.2572351000000002 -1.2498011 -1.2151296 -0.92686749 -0.7684571 -0.54259414 -0.20504068 -0.1419683 0.032076295 0.38084395 0.44776824 0.53223706 0.6235314999999999 0.51215621 0.68879071 0.94772035 0.8274123999999999 0.72960427 0.71119979 0.57064342 0.59894443 0.76494881 0.71934306 0.5633234 0.51730475 0.49819486 0.50454372 0.59124855 0.56237854 0.44703778 0.45239829 0.44070010000000004 0.44913373 0.65793626
-1.1868895000000002 -1.171606 -1.1302896999999998 -1.2804719 -1.4578255 -1.4537981000000002 -1.5607523 -1.7141015 -1.7409582 -1.8769725 -1.9752459 -1.8498089 -1.8544701000000001 -1.9398877 -1.6467192 -1.2572351000000002 -1.2498011 -1.2151296 -0.92686749 -0.7684571 -0.54259414 -0.20504068 -0.1419683 0.032076295 0.38084395 0.44776824 0.53223706 0.6235314999999999 0.51215621 0.68879071 0.94772035 0.8274123999999999 0.72960427 0.71119979 0.57064342 0.59894443 0.76494881 0.71934306 0.5633234 0.51730475 0.49819486 0.50454372 0.59124855 0.56237854 0.44703778 0.45239829 0.44070010000000004 0.44913373 0.65793626 0.77128378
-1.171606 -1.1302896999999998 -1.2804719 -1.4578255 -1.4537981000000002 -1.5607523 -1.7141015 -1.7409582 -1.8769725 -1.9752459 -1.8498089 -1.8544701000000001 -1.9398877 -1.6467192 -1.2572351000000002 -1.2498011 -1.2151296 -0.92686749 -0.7684571 -0.54259414 -0.20504068 -0.1419683 0.032076295 0.38084395 0.44776824 0.53223706 0.6235314999999999 0.51215621 0.68879071 0.94772035 0.8274123999999999 0.72960427 0.71119979 0.57064342 0.59894443 0.76494881 0.71934306 0.5633234 0.51730475 0.49819486 0.50454372 0.59124855 0.56237854 0.44703778 0.45239829 0.44070010000000004 0.44913373 0.65793626 0.77128378 0.6883201999999999
-1.1302896999999998 -1.2804719 -1.4578255 -1.4537981000000002 -1.5607523 -1.7141015 -1.7409582 -1.8769725 -1.9752459 -1.8498089 -1.8544701000000001 -1.9398877 -1.6467192 -1.2572351000000002 -1.2498011 -1.2151296 -0.92686749 -0.7684571 -0.54259414 -0.20504068 -0.1419683 0.032076295 0.38084395 0.44776824 0.53223706 0.6235314999999999 0.51215621 0.68879071 0.94772035 0.8274123999999999 0.72960427 0.71119979 0.57064342 0.59894443 0.76494881 0.71934306 0.5633234 0.51730475 0.49819486 0.50454372 0.59124855 0.56237854 0.44703778 0.45239829 0.44070010000000004 0.44913373 0.65793626 0.77128378 0.6883201999999999 0.76057639
-1.2804719 -1.4578255 -1.4537981000000002 -1.5607523 -1.7141015 -1.7409582 -1.8769725 -1.9752459 -1.8498089 -1.8544701000000001 -1.9398877 -1.6467192 -1.2572351000000002 -1.2498011 -1.2151296 -0.92686749 -0.7684571 -0.54259414 -0.20504068 -0.1419683 0.032076295 0.38084395 0.44776824 0.53223706 0.6235314999999999 0.51215621 0.68879071 0.94772035 0.8274123999999999 0.72960427 0.71119979 0.57064342 0.59894443 0.76494881 0.71934306 0.5633234 0.51730475 0.49819486 0.50454372 0.59124855 0.56237854 0.44703778 0.45239829 0.44070010000000004 0.44913373 0.65793626 0.77128378 0.6883201999999999 0.76057639 0.95106694
-1.4578255 -1.4537981000000002 -1.5607523 -1.7141015 -1.7409582 -1.8769725 -1.9752459 -1.8498089 -1.8544701000000001 -1.9398877 -1.6467192 -1.2572351000000002 -1.2498011 -1.2151296 -0.92686749 -0.7684571 -0.54259414 -0.20504068 -0.1419683 0.032076295 0.38084395 0.44776824 0.53223706 0.6235314999999999 0.51215621 0.68879071 0.94772035 0.8274123999999999 0.72960427 0.71119979 0.57064342 0.59894443 0.76494881 0.71934306 0.5633234 0.51730475 0.49819486 0.50454372 0.59124855 0.56237854 0.44703778 0.45239829 0.44070010000000004 0.44913373 0.65793626 0.77128378 0.6883201999999999 0.76057639 0.95106694 0.95167507
-1.4537981000000002 -1.5607523 -1.7141015 -1.7409582 -1.8769725 -1.9752459 -1.8498089 -1.8544701000000001 -1.9398877 -1.6467192 -1.2572351000000002 -1.2498011 -1.2151296 -0.92686749 -0.7684571 -0.54259414 -0.20504068 -0.1419683 0.032076295 0.38084395 0.44776824 0.53223706 0.6235314999999999 0.51215621 0.68879071 0.94772035 0.8274123999999999 0.72960427 0.71119979 0.57064342 0.59894443 0.76494881 0.71934306 0.5633234 0.51730475 0.49819486 0.50454372 0.59124855 0.56237854 0.44703778 0.45239829 0.44070010000000004 0.44913373 0.65793626 0.77128378 0.6883201999999999 0.76057639 0.95106694 0.95167507 0.86996202
-1.5607523 -1.7141015 -1.7409582 -1.8769725 -1.9752459 -1.8498089 -1.8544701000000001 -1.9398877 -1.6467192 -1.2572351000000002 -1.2498011 -1.2151296 -0.92686749 -0.7684571 -0.54259414 -0.20504068 -0.1419683 0.032076295 0.38084395 0.44776824 0.53223706 0.6235314999999999 0.51215621 0.68879071 0.94772035 0.8274123999999999 0.72960427 0.71119979 0.57064342 0.59894443 0.76494881 0.71934306 0.5633234 0.51730475 0.49819486 0.50454372 0.59124855 0.56237854 0.44703778 0.45239829 0.44070010000000004 0.44913373 0.65793626 0.77128378 0.6883201999999999 0.76057639 0.95106694 0.95167507 0.86996202 0.96020984
-1.7141015 -1.7409582 -1.8769725 -1.9752459 -1.8498089 -1.8544701000000001 -1.9398877 -1.6467192 -1.2572351000000002 -1.2498011 -1.2151296 -0.92686749 -0.7684571 -0.54259414 -0.20504068 -0.1419683 0.032076295 0.38084395 0.44776824 0.53223706 0.6235314999999999 0.51215621 0.68879071 0.94772035 0.8274123999999999 0.72960427 0.71119979 0.57064342 0.59894443 0.76494881 0.71934306 0.5633234 0.51730475 0.49819486 0.50454372 0.59124855 0.56237854 0.44703778 0.45239829 0.44070010000000004 0.44913373 0.65793626 0.77128378 0.6883201999999999 0.76057639 0.95106694 0.95167507 0.86996202 0.96020984 1.0703106000000002
-1.7409582 -1.8769725 -1.9752459 -1.8498089 -1.8544701000000001 -1.9398877 -1.6467192 -1.2572351000000002 -1.2498011 -1.2151296 -0.92686749 -0.7684571 -0.54259414 -0.20504068 -0.1419683 0.032076295 0.38084395 0.44776824 0.53223706 0.6235314999999999 0.51215621 0.68879071 0.94772035 0.8274123999999999 0.72960427 0.71119979 0.57064342 0.59894443 0.76494881 0.71934306 0.5633234 0.51730475 0.49819486 0.50454372 0.59124855 0.56237854 0.44703778 0.45239829 0.44070010000000004 0.44913373 0.65793626 0.77128378 0.6883201999999999 0.76057639 0.95106694 0.95167507 0.86996202 0.96020984 1.0703106000000002 1.0027704
-1.8769725 -1.9752459 -1.8498089 -1.8544701000000001 -1.9398877 -1.6467192 -1.2572351000000002 -1.2498011 -1.2151296 -0.92686749 -0.7684571 -0.54259414 -0.20504068 -0.1419683 0.032076295 0.38084395 0.44776824 0.53223706 0.6235314999999999 0.51215621 0.68879071 0.94772035 0.8274123999999999 0.72960427 0.71119979 0.57064342 0.59894443 0.76494881 0.71934306 0.5633234 0.51730475 0.49819486 0.50454372 0.59124855 0.56237854 0.44703778 0.45239829 0.44070010000000004 0.44913373 0.65793626 0.77128378 0.6883201999999999 0.76057639 0.95106694 0.95167507 0.86996202 0.96020984 1.0703106000000002 1.0027704 0.90786883
-1.9752459 -1.8498089 -1.8544701000000001 -1.9398877 -1.6467192 -1.2572351000000002 -1.2498011 -1.2151296 -0.92686749 -0.7684571 -0.54259414 -0.20504068 -0.1419683 0.032076295 0.38084395 0.44776824 0.53223706 0.6235314999999999 0.51215621 0.68879071 0.94772035 0.8274123999999999 0.72960427 0.71119979 0.57064342 0.59894443 0.76494881 0.71934306 0.5633234 0.51730475 0.49819486 0.50454372 0.59124855 0.56237854 0.44703778 0.45239829 0.44070010000000004 0.44913373 0.65793626 0.77128378 0.6883201999999999 0.76057639 0.95106694 0.95167507 0.86996202 0.96020984 1.0703106000000002 1.0027704 0.90786883 0.91645678
-1.8498089 -1.8544701000000001 -1.9398877 -1.6467192 -1.2572351000000002 -1.2498011 -1.2151296 -0.92686749 -0.7684571 -0.54259414 -0.20504068 -0.1419683 0.032076295 0.38084395 0.44776824 0.53223706 0.6235314999999999 0.51215621 0.68879071 0.94772035 0.8274123999999999 0.72960427 0.71119979 0.57064342 0.59894443 0.76494881 0.71934306 0.5633234 0.51730475 0.49819486 0.50454372 0.59124855 0.56237854 0.44703778 0.45239829 0.44070010000000004 0.44913373 0.65793626 0.77128378 0.6883201999999999 0.76057639 0.95106694 0.95167507 0.86996202 0.96020984 1.0703106000000002 1.0027704 0.90786883 0.91645678 0.92397483
-1.8544701000000001 -1.9398877 -1.6467192 -1.2572351000000002 -1.2498011 -1.2151296 -0.92686749 -0.7684571 -0.54259414 -0.20504068 -0.1419683 0.032076295 0.38084395 0.44776824 0.53223706 0.6235314999999999 0.51215621 0.68879071 0.94772035 0.8274123999999999 0.72960427 0.71119979 0.57064342 0.59894443 0.76494881 0.71934306 0.5633234 0.51730475 0.49819486 0.50454372 0.59124855 0.56237854 0.44703778 0.45239829 0.44070010000000004 0.44913373 0.65793626 0.77128378 0.6883201999999999 0.76057639 0.95106694 0.95167507 0.86996202 0.96020984 1.0703106000000002 1.0027704 0.90786883 0.91645678 0.92397483 0.76735709
-1.9398877 -1.6467192 -1.2572351000000002 -1.2498011 -1.2151296 -0.92686749 -0.7684571 -0.54259414 -0.20504068 -0.1419683 0.032076295 0.38084395 0.44776824 0.53223706 0.6235314999999999 0.51215621 0.68879071 0.94772035 0.8274123999999999 0.72960427 0.71119979 0.57064342 0.59894443 0.76494881 0.71934306 0.5633234 0.51730475 0.49819486 0.50454372 0.59124855 0.56237854 0.44703778 0.45239829 0.44070010000000004 0.44913373 0.65793626 0.77128378 0.6883201999999999 0.76057639 0.95106694 0.95167507 0.86996202 0.96020984 1.0703106000000002 1.0027704 0.90786883 0.91645678 0.92397483 0.76735709 0.65622342
-1.6467192 -1.2572351000000002 -1.2498011 -1.2151296 -0.92686749 -0.7684571 -0.54259414 -0.20504068 -0.1419683 0.032076295 0.38084395 0.44776824 0.53223706 0.6235314999999999 0.51215621 0.68879071 0.94772035 0.8274123999999999 0.72960427 0.71119979 0.57064342 0.59894443 0.76494881 0.71934306 0.5633234 0.51730475 0.49819486 0.50454372 0.59124855 0.56237854 0.44703778 0.45239829 0.44070010000000004 0.44913373 0.65793626 0.77128378 0.6883201999999999 0.76057639 0.95106694 0.95167507 0.86996202 0.96020984 1.0703106000000002 1.0027704 0.90786883 0.91645678 0.92397483 0.76735709 0.65622342 0.76235704
-1.2572351000000002 -1.2498011 -1.2151296 -0.92686749 -0.7684571 -0.54259414 -0.20504068 -0.1419683 0.032076295 0.38084395 0.44776824 0.53223706 0.6235314999999999 0.51215621 0.68879071 0.94772035 0.8274123999999999 0.72960427 0.71119979 0.57064342 0.59894443 0.76494881 0.71934306 0.5633234 0.51730475 0.49819486 0.50454372 0.59124855 0.56237854 0.44703778 0.45239829 0.44070010000000004 0.44913373 0.65793626 0.77128378 0.6883201999999999 0.76057639 0.95106694 0.95167507 0.86996202 0.96020984 1.0703106000000002 1.0027704 0.90786883 0.91645678 0.92397483 0.76735709 0.65622342 0.76235704 0.50137321
-1.2498011 -1.2151296 -0.92686749 -0.7684571 -0.54259414 -0.20504068 -0.1419683 0.032076295 0.38084395 0.44776824 0.53223706 0.6235314999999999 0.51215621 0.68879071 0.94772035 0.8274123999999999 0.72960427 0.71119979 0.57064342 0.59894443 0.76494881 0.71934306 0.5633234 0.51730475 0.49819486 0.50454372 0.59124855 0.56237854 0.44703778 0.45239829 0.44070010000000004 0.44913373 0.65793626 0.77128378 0.6883201999999999 0.76057639 0.95106694 0.95167507 0.86996202 0.96020984 1.0703106000000002 1.0027704 0.90786883 0.91645678 0.92397483 0.76735709 0.65622342 0.76235704 0.50137321 -0.33333635
-1.2151296 -0.92686749 -0.7684571 -0.54259414 -0.20504068 -0.1419683 0.032076295 0.38084395 0.44776824 0.53223706 0.6235314999999999 0.51215621 0.68879071 0.94772035 0.8274123999999999 0.72960427 0.71119979 0.57064342 0.59894443 0.76494881 0.71934306 0.5633234 0.51730475 0.49819486 0.50454372 0.59124855 0.56237854 0.44703778 0.45239829 0.44070010000000004 0.44913373 0.65793626 0.77128378 0.6883201999999999 0.76057639 0.95106694 0.95167507 0.86996202 0.96020984 1.0703106000000002 1.0027704 0.90786883 0.91645678 0.92397483 0.76735709 0.65622342 0.76235704 0.50137321 -0.33333635 -0.524546
