2.6890171 2.7087035 2.0083813999999998 2.2357998 1.5169816 0.02991649 -0.56134614 -0.79370191 -0.97937117 -1.2881617 -1.178131 -1.3899892 -1.3843161 -1.4799193000000002 -1.6174653 -1.6067999 -1.7073068 -1.8333817 -1.7511665 -1.8837535 -1.9133903 -1.9986311 -1.8438057 -1.9308357 -1.7339859 -1.5787198999999998 -1.3686669 -1.0669859 -0.68688217 -0.38254923 0.0058375575 0.28644788 0.56434769 0.76388319 0.92430946 1.1767835 1.0195918 1.0565467 0.97452859 0.97208583 0.79756973 0.80532536 0.78101338 0.79397353 0.64513762 0.66608905 0.63825042 0.60022936 0.51806721 0.64637147
2.7087035 2.0083813999999998 2.2357998 1.5169816 0.02991649 -0.56134614 -0.79370191 -0.97937117 -1.2881617 -1.178131 -1.3899892 -1.3843161 -1.4799193000000002 -1.6174653 -1.6067999 -1.7073068 -1.8333817 -1.7511665 -1.8837535 -1.9133903 -1.9986311 -1.8438057 -1.9308357 -1.7339859 -1.5787198999999998 -1.3686669 -1.0669859 -0.68688217 -0.38254923 0.0058375575 0.28644788 0.56434769 0.76388319 0.92430946 1.1767835 1.0195918 1.0565467 0.97452859 0.97208583 0.79756973 0.80532536 0.78101338 0.79397353 0.64513762 0.66608905 0.63825042 0.60022936 0.51806721 0.64637147 0.51211797
2.0083813999999998 2.2357998 1.5169816 0.02991649 -0.56134614 -0.79370191 -0.97937117 -1.2881617 -1.178131 -1.3899892 -1.3843161 -1.4799193000000002 -1.6174653 -1.6067999 -1.7073068 -1.8333817 -1.7511665 -1.8837535 -1.9133903 -1.9986311 -1.8438057 -1.9308357 -1.7339859 -1.5787198999999998 -1.3686669 -1.0669859 -0.68688217 -0.38254923 0.0058375575 0.28644788 0.56434769 0.76388319 0.92430946 1.1767835 1.0195918 1.0565467 0.97452859 0.97208583 0.79756973 0.80532536 0.78101338 0.79397353 0.64513762 0.66608905 0.63825042 0.60022936 0.51806721 0.64637147 0.51211797 0.47815973
2.2357998 1.5169816 0.02991649 -0.56134614 -0.79370191 -0.97937117 -1.2881617 -1.178131 -1.3899892 -1.3843161 -1.4799193000000002 -1.6174653 -1.6067999 -1.7073068 -1.8333817 -1.7511665 -1.8837535 -1.9133903 -1.9986311 -1.8438057 -1.9308357 -1.7339859 -1.5787198999999998 -1.3686669 -1.0669859 -0.68688217 -0.38254923 0.0058375575 0.28644788 0.56434769 0.76388319 0.92430946 1.1767835 1.0195918 1.0565467 0.97452859 0.97208583 0.79756973 0.80532536 0.78101338 0.79397353 0.64513762 0.66608905 0.63825042 0.60022936 0.51806721 0.64637147 0.51211797 0.47815973 0.34186576
1.5169816 0.02991649 -0.56134614 -0.79370191 -0.97937117 -1.2881617 -1.178131 -1.3899892 -1.3843161 -1.4799193000000002 -1.6174653 -1.6067999 -1.7073068 -1.8333817 -1.7511665 -1.8837535 -1.9133903 -1.9986311 -1.8438057 -1.9308357 -1.7339859 -1.5787198999999998 -1.3686669 -1.0669859 -0.68688217 -0.38254923 0.0058375575 0.28644788 0.56434769 0.76388319 0.92430946 1.1767835 1.0195918 1.0565467 0.97452859 0.97208583 0.79756973 0.80532536 0.78101338 0.79397353 0.64513762 0.66608905 0.63825042 0.60022936 0.51806721 0.64637147 0.51211797 0.47815973 0.34186576 0.40103811
0.02991649 -0.56134614 -0.79370191 -0.97937117 -1.2881617 -1.178131 -1.3899892 -1.3843161 -1.4799193000000002 -1.6174653 -1.6067999 -1.7073068 -1.8333817 -1.7511665 -1.8837535 -1.9133903 -1.9986311 -1.8438057 -1.9308357 -1.7339859 -1.5787198999999998 -1.3686669 -1.0669859 -0.68688217 -0.38254923 0.0058375575 0.28644788 0.56434769 0.76388319 0.92430946 1.1767835 1.0195918 1.0565467 0.97452859 0.97208583 0.79756973 0.80532536 0.78101338 0.79397353 0.64513762 0.66608905 0.63825042 0.60022936 0.51806721 0.64637147 0.51211797 0.47815973 0.34186576 0.40103811 0.40939273
-0.56134614 -0.79370191 -0.97937117 -1.2881617 -1.178131 -1.3899892 -1.3843161 -1.4799193000000002 -1.6174653 -1.6067999 -1.7073068 -1.8333817 -1.7511665 -1.8837535 -1.9133903 -1.9986311 -1.8438057 -1.9308357 -1.7339859 -1.5787198999999998 -1.3686669 -1.0669859 -0.68688217 -0.38254923 0.0058375575 0.28644788 0.56434769 0.76388319 0.92430946 1.1767835 1.0195918 1.0565467 0.97452859 0.97208583 0.79756973 0.80532536 0.78101338 0.79397353 0.64513762 0.66608905 0.63825042 0.60022936 0.51806721 0.64637147 0.51211797 0.47815973 0.34186576 0.40103811 0.40939273 0.30471192
-0.79370191 -0.97937117 -1.2881617 -1.178131 -1.3899892 -1.3843161 -1.4799193000000002 -1.6174653 -1.6067999 -1.7073068 -1.8333817 -1.7511665 -1.8837535 -1.9133903 -1.9986311 -1.8438057 -1.9308357 -1.7339859 -1.5787198999999998 -1.3686669 -1.0669859 -0.68688217 -0.38254923 0.0058375575 0.28644788 0.56434769 0.76388319 0.92430946 1.1767835 1.0195918 1.0565467 0.97452859 0.97208583 0.79756973 0.80532536 0.78101338 0.79397353 0.64513762 0.66608905 0.63825042 0.60022936 0.51806721 0.64637147 0.51211797 0.47815973 0.34186576 0.40103811 0.40939273 0.30471192 0.2577703
-0.97937117 -1.2881617 -1.178131 -1.3899892 -1.3843161 -1.4799193000000002 -1.6174653 -1.6067999 -1.7073068 -1.8333817 -1.7511665 -1.8837535 -1.9133903 -1.9986311 -1.8438057 -1.9308357 -1.7339859 -1.5787198999999998 -1.3686669 -1.0669859 -0.68688217 -0.38254923 0.0058375575 0.28644788 0.56434769 0.76388319 0.92430946 1.1767835 1.0195918 1.0565467 0.97452859 0.97208583 0.79756973 0.80532536 0.78101338 0.79397353 0.64513762 0.66608905 0.63825042 0.60022936 0.51806721 0.64637147 0.51211797 0.47815973 0.34186576 0.40103811 0.40939273 0.30471192 0.2577703 0.38755869
-1.2881617 -1.178131 -1.3899892 -1.3843161 -1.4799193000000002 -1.6174653 -1.6067999 -1.7073068 -1.8333817 -1.7511665 -1.8837535 -1.9133903 -1.9986311 -1.8438057 -1.9308357 -1.7339859 -1.5787198999999998 -1.3686669 -1.0669859 -0.68688217 -0.38254923 0.0058375575 0.28644788 0.56434769 0.76388319 0.92430946 1.1767835 1.0195918 1.0565467 0.97452859 0.97208583 0.79756973 0.80532536 0.78101338 0.79397353 0.64513762 0.66608905 0.63825042 0.60022936 0.51806721 0.64637147 0.51211797 0.47815973 0.34186576 0.40103811 0.40939273 0.30471192 0.2577703 0.38755869 0.25075475
-1.178131 -1.3899892 -1.3843161 -1.4799193000000002 -1.6174653 -1.6067999 -1.7073068 -1.8333817 -1.7511665 -1.8837535 -1.9133903 -1.9986311 -1.8438057 -1.9308357 -1.7339859 -1.5787198999999998 -1.3686669 -1.0669859 -0.68688217 -0.38254923 0.0058375575 0.28644788 0.56434769 0.76388319 0.92430946 1.1767835 1.0195918 1.0565467 0.97452859 0.97208583 0.79756973 0.80532536 0.78101338 0.79397353 0.64513762 0.66608905 0.63825042 0.60022936 0.51806721 0.64637147 0.51211797 0.47815973 0.34186576 0.40103811 0.40939273 0.30471192 0.2577703 0.38755869 0.25075475 0.26046103
-1.3899892 -1.3843161 -1.4799193000000002 -1.6174653 -1.6067999 -1.7073068 -1.8333817 -1.7511665 -1.8837535 -1.9133903 -1.9986311 -1.8438057 -1.9308357 -1.7339859 -1.5787198999999998 -1.3686669 -1.0669859 -0.68688217 -0.38254923 0.0058375575 0.28644788 0.56434769 0.76388319 0.92430946 1.1767835 1.0195918 1.0565467 0.97452859 0.97208583 0.79756973 0.80532536 0.78101338 0.79397353 0.64513762 0.66608905 0.63825042 0.60022936 0.51806721 0.64637147 0.51211797 0.47815973 0.34186576 0.40103811 0.40939273 0.30471192 0.2577703 0.38755869 0.25075475 0.26046103 0.11719242
-1.3843161 -1.4799193000000002 -1.6174653 -1.6067999 -1.7073068 -1.8333817 -1.7511665 -1.8837535 -1.9133903 -1.9986311 -1.8438057 -1.9308357 -1.7339859 -1.5787198999999998 -1.3686669 -1.0669859 -0.68688217 -0.38254923 0.0058375575 0.28644788 0.56434769 0.76388319 0.92430946 1.1767835 1.0195918 1.0565467 0.97452859 0.97208583 0.79756973 0.80532536 0.78101338 0.79397353 0.64513762 0.66608905 0.63825042 0.60022936 0.51806721 0.64637147 0.51211797 0.47815973 0.34186576 0.40103811 0.40939273 0.30471192 0.2577703 0.38755869 0.25075475 0.26046103 0.11719242 0.1300502
-1.4799193000000002 -1.6174653 -1.6067999 -1.7073068 -1.8333817 -1.7511665 -1.8837535 -1.9133903 -1.9986311 -1.8438057 -1.9308357 -1.7339859 -1.5787198999999998 -1.3686669 -1.0669859 -0.68688217 -0.38254923 0.0058375575 0.28644788 0.56434769 0.76388319 0.92430946 1.1767835 1.0195918 1.0565467 0.97452859 0.97208583 0.79756973 0.80532536 0.78101338 0.79397353 0.64513762 0.66608905 0.63825042 0.60022936 0.51806721 0.64637147 0.51211797 0.47815973 0.34186576 0.40103811 0.40939273 0.30471192 0.2577703 0.38755869 0.25075475 0.26046103 0.11719242 0.1300502 0.30662929
-1.6174653 -1.6067999 -1.7073068 -1.8333817 -1.7511665 -1.8837535 -1.9133903 -1.9986311 -1.8438057 -1.9308357 -1.7339859 -1.5787198999999998 -1.3686669 -1.0669859 -0.68688217 -0.38254923 0.0058375575 0.28644788 0.56434769 0.76388319 0.92430946 1.1767835 1.0195918 1.0565467 0.97452859 0.97208583 0.79756973 0.80532536 0.78101338 0.79397353 0.64513762 0.66608905 0.63825042 0.60022936 0.51806721 0.64637147 0.51211797 0.47815973 0.34186576 0.40103811 0.40939273 0.30471192 0.2577703 0.38755869 0.25075475 0.26046103 0.11719242 0.1300502 0.30662929 0.09310346
-1.6067999 -1.7073068 -1.8333817 -1.7511665 -1.8837535 -1.9133903 -1.9986311 -1.8438057 -1.9308357 -1.7339859 -1.5787198999999998 -1.3686669 -1.0669859 -0.68688217 -0.38254923 0.0058375575 0.28644788 0.56434769 0.76388319 0.92430946 1.1767835 1.0195918 1.0565467 0.97452859 0.97208583 0.79756973 0.80532536 0.78101338 0.79397353 0.64513762 0.66608905 0.63825042 0.60022936 0.51806721 0.64637147 0.51211797 0.47815973 0.34186576 0.40103811 0.40939273 0.30471192 0.2577703 0.38755869 0.25075475 0.26046103 0.11719242 0.1300502 0.30662929 0.09310346 0.09316905199999999
-1.7073068 -1.8333817 -1.7511665 -1.8837535 -1.9133903 -1.9986311 -1.8438057 -1.9308357 -1.7339859 -1.5787198999999998 -1.3686669 -1.0669859 -0.68688217 -0.38254923 0.0058375575 0.28644788 0.56434769 0.76388319 0.92430946 1.1767835 1.0195918 1.0565467 0.97452859 0.97208583 0.79756973 0.80532536 0.78101338 0.79397353 0.64513762 0.66608905 0.63825042 0.60022936 0.51806721 0.64637147 0.51211797 0.47815973 0.34186576 0.40103811 0.40939273 0.30471192 0.2577703 0.38755869 0.25075475 0.26046103 0.11719242 0.1300502 0.30662929 0.09310346 0.09316905199999999 0.069559367
-1.8333817 -1.7511665 -1.8837535 -1.9133903 -1.9986311 -1.8438057 -1.9308357 -1.7339859 -1.5787198999999998 -1.3686669 -1.0669859 -0.68688217 -0.38254923 0.0058375575 0.28644788 0.56434769 0.76388319 0.92430946 1.1767835 1.0195918 1.0565467 0.97452859 0.97208583 0.79756973 0.80532536 0.78101338 0.79397353 0.64513762 0.66608905 0.63825042 0.60022936 0.51806721 0.64637147 0.51211797 0.47815973 0.34186576 0.40103811 0.40939273 0.30471192 0.2577703 0.38755869 0.25075475 0.26046103 0.11719242 0.1300502 0.30662929 0.09310346 0.09316905199999999 0.069559367 0.21729395
-1.7511665 -1.8837535 -1.9133903 -1.9986311 -1.8438057 -1.9308357 -1.7339859 -1.5787198999999998 -1.3686669 -1.0669859 -0.68688217 -0.38254923 0.0058375575 0.28644788 0.56434769 0.76388319 0.92430946 1.1767835 1.0195918 1.0565467 0.97452859 0.97208583 0.79756973 0.80532536 0.78101338 0.79397353 0.64513762 0.66608905 0.63825042 0.60022936 0.51806721 0.64637147 0.51211797 0.47815973 0.34186576 0.40103811 0.40939273 0.30471192 0.2577703 0.38755869 0.25075475 0.26046103 0.11719242 0.1300502 0.30662929 0.09310346 0.09316905199999999 0.069559367 0.21729395 0.064019283
-1.8837535 -1.9133903 -1.9986311 -1.8438057 -1.9308357 -1.7339859 -1.5787198999999998 -1.3686669 -1.0669859 -0.68688217 -0.38254923 0.0058375575 0.28644788 0.56434769 0.76388319 0.92430946 1.1767835 1.0195918 1.0565467 0.97452859 0.97208583 0.79756973 0.80532536 0.78101338 0.79397353 0.64513762 0.66608905 0.63825042 0.60022936 0.51806721 0.64637147 0.51211797 0.47815973 0.34186576 0.40103811 0.40939273 0.30471192 0.2577703 0.38755869 0.25075475 0.26046103 0.11719242 0.1300502 0.30662929 0.09310346 0.09316905199999999 0.069559367 0.21729395 0.064019283 0.19102973
-1.9133903 -1.9986311 -1.8438057 -1.9308357 -1.7339859 -1.5787198999999998 -1.3686669 -1.0669859 -0.68688217 -0.38254923 0.0058375575 0.28644788 0.56434769 0.76388319 0.92430946 1.1767835 1.0195918 1.0565467 0.97452859 0.97208583 0.79756973 0.80532536 0.78101338 0.79397353 0.64513762 0.66608905 0.63825042 0.60022936 0.51806721 0.64637147 0.51211797 0.47815973 0.34186576 0.40103811 0.40939273 0.30471192 0.2577703 0.38755869 0.25075475 0.26046103 0.11719242 0.1300502 0.30662929 0.09310346 0.09316905199999999 0.069559367 0.21729395 0.064019283 0.19102973 0.080114911
-1.9986311 -1.8438057 -1.9308357 -1.7339859 -1.5787198999999998 -1.3686669 -1.0669859 -0.68688217 -0.38254923 0.0058375575 0.28644788 0.56434769 0.76388319 0.92430946 1.1767835 1.0195918 1.0565467 0.97452859 0.97208583 0.79756973 0.80532536 0.78101338 0.79397353 0.64513762 0.66608905 0.63825042 0.60022936 0.51806721 0.64637147 0.51211797 0.47815973 0.34186576 0.40103811 0.40939273 0.30471192 0.2577703 0.38755869 0.25075475 0.26046103 0.11719242 0.1300502 0.30662929 0.09310346 0.09316905199999999 0.069559367 0.21729395 0.064019283 0.19102973 0.080114911 0.12376522
-1.8438057 -1.9308357 -1.7339859 -1.5787198999999998 -1.3686669 -1.0669859 -0.68688217 -0.38254923 0.0058375575 0.28644788 0.56434769 0.76388319 0.92430946 1.1767835 1.0195918 1.0565467 0.97452859 0.97208583 0.79756973 0.80532536 0.78101338 0.79397353 0.64513762 0.66608905 0.63825042 0.60022936 0.51806721 0.64637147 0.51211797 0.47815973 0.34186576 0.40103811 0.40939273 0.30471192 0.2577703 0.38755869 0.25075475 0.26046103 0.11719242 0.1300502 0.30662929 0.09310346 0.09316905199999999 0.069559367 0.21729395 0.064019283 0.19102973 0.080114911 0.12376522 0.16413121
-1.9308357 -1.7339859 -1.5787198999999998 -1.3686669 -1.0669859 -0.68688217 -0.38254923 0.0058375575 0.28644788 0.56434769 0.76388319 0.92430946 1.1767835 1.0195918 1.0565467 0.97452859 0.97208583 0.79756973 0.80532536 0.78101338 0.79397353 0.64513762 0.66608905 0.63825042 0.60022936 0.51806721 0.64637147 0.51211797 0.47815973 0.34186576 0.40103811 0.40939273 0.30471192 0.2577703 0.38755869 0.25075475 0.26046103 0.11719242 0.1300502 0.30662929 0.09310346 0.09316905199999999 0.069559367 0.21729395 0.064019283 0.19102973 0.080114911 0.12376522 0.16413121 0.24551660000000003
-1.7339859 -1.5787198999999998 -1.3686669 -1.0669859 -0.68688217 -0.38254923 0.0058375575 0.28644788 0.56434769 0.76388319 0.92430946 1.1767835 1.0195918 1.0565467 0.97452859 0.97208583 0.79756973 0.80532536 0.78101338 0.79397353 0.64513762 0.66608905 0.63825042 0.60022936 0.51806721 0.64637147 0.51211797 0.47815973 0.34186576 0.40103811 0.40939273 0.30471192 0.2577703 0.38755869 0.25075475 0.26046103 0.11719242 0.1300502 0.30662929 0.09310346 0.09316905199999999 0.069559367 0.21729395 0.064019283 0.19102973 0.080114911 0.12376522 0.16413121 0.24551660000000003 0.59856244
-1.5787198999999998 -1.3686669 -1.0669859 -0.68688217 -0.38254923 0.0058375575 0.28644788 0.56434769 0.76388319 0.92430946 1.1767835 1.0195918 1.0565467 0.97452859 0.97208583 0.79756973 0.80532536 0.78101338 0.79397353 0.64513762 0.66608905 0.63825042 0.60022936 0.51806721 0.64637147 0.51211797 0.47815973 0.34186576 0.40103811 0.40939273 0.30471192 0.2577703 0.38755869 0.25075475 0.26046103 0.11719242 0.1300502 0.30662929 0.09310346 0.09316905199999999 0.069559367 0.21729395 0.064019283 0.19102973 0.080114911 0.12376522 0.16413121 0.24551660000000003 0.59856244 0.78595212
-1.3686669 -1.0669859 -0.68688217 -0.38254923 0.0058375575 0.28644788 0.56434769 0.76388319 0.92430946 1.1767835 1.0195918 1.0565467 0.97452859 0.97208583 0.79756973 0.80532536 0.78101338 0.79397353 0.64513762 0.66608905 0.63825042 0.60022936 0.51806721 0.64637147 0.51211797 0.47815973 0.34186576 0.40103811 0.40939273 0.30471192 0.2577703 0.38755869 0.25075475 0.26046103 0.11719242 0.1300502 0.30662929 0.09310346 0.09316905199999999 0.069559367 0.21729395 0.064019283 0.19102973 0.080114911 0.12376522 0.16413121 0.24551660000000003 0.59856244 0.78595212 0.63289168
-1.0669859 -0.68688217 -0.38254923 0.0058375575 0.28644788 0.56434769 0.76388319 0.92430946 1.1767835 1.0195918 1.0565467 0.97452859 0.97208583 0.79756973 0.80532536 0.78101338 0.79397353 0.64513762 0.66608905 0.63825042 0.60022936 0.51806721 0.64637147 0.51211797 0.47815973 0.34186576 0.40103811 0.40939273 0.30471192 0.2577703 0.38755869 0.25075475 0.26046103 0.11719242 0.1300502 0.30662929 0.09310346 0.09316905199999999 0.069559367 0.21729395 0.064019283 0.19102973 0.080114911 0.12376522 0.16413121 0.24551660000000003 0.59856244 0.78595212 0.63289168 0.601114
-0.68688217 -0.38254923 0.0058375575 0.28644788 0.56434769 0.76388319 0.92430946 1.1767835 1.0195918 1.0565467 0.97452859 0.97208583 0.79756973 0.80532536 0.78101338 0.79397353 0.64513762 0.66608905 0.63825042 0.60022936 0.51806721 0.64637147 0.51211797 0.47815973 0.34186576 0.40103811 0.40939273 0.30471192 0.2577703 0.38755869 0.25075475 0.26046103 0.11719242 0.1300502 0.30662929 0.09310346 0.09316905199999999 0.069559367 0.21729395 0.064019283 0.19102973 0.080114911 0.12376522 0.16413121 0.24551660000000003 0.59856244 0.78595212 0.63289168 0.601114 0.39655387
-0.38254923 0.0058375575 0.28644788 0.56434769 0.76388319 0.92430946 1.1767835 1.0195918 1.0565467 0.97452859 0.97208583 0.79756973 0.80532536 0.78101338 0.79397353 0.64513762 0.66608905 0.63825042 0.60022936 0.51806721 0.64637147 0.51211797 0.47815973 0.34186576 0.40103811 0.40939273 0.30471192 0.2577703 0.38755869 0.25075475 0.26046103 0.11719242 0.1300502 0.30662929 0.09310346 0.09316905199999999 0.069559367 0.21729395 0.064019283 0.19102973 0.080114911 0.12376522 0.16413121 0.24551660000000003 0.59856244 0.78595212 0.63289168 0.601114 0.39655387 0.18487064
0.0058375575 0.28644788 0.56434769 0.76388319 0.92430946 1.1767835 1.0195918 1.0565467 0.97452859 0.97208583 0.79756973 0.80532536 0.78101338 0.79397353 0.64513762 0.66608905 0.63825042 0.60022936 0.51806721 0.64637147 0.51211797 0.47815973 0.34186576 0.40103811 0.40939273 0.30471192 0.2577703 0.38755869 0.25075475 0.26046103 0.11719242 0.1300502 0.30662929 0.09310346 0.09316905199999999 0.069559367 0.21729395 0.064019283 0.19102973 0.080114911 0.12376522 0.16413121 0.24551660000000003 0.59856244 0.78595212 0.63289168 0.601114 0.39655387 0.18487064 0.2394387
0.28644788 0.56434769 0.76388319 0.92430946 1.1767835 1.0195918 1.0565467 0.97452859 0.97208583 0.79756973 0.80532536 0.78101338 0.79397353 0.64513762 0.66608905 0.63825042 0.60022936 0.51806721 0.64637147 0.51211797 0.47815973 0.34186576 0.40103811 0.40939273 0.30471192 0.2577703 0.38755869 0.25075475 0.26046103 0.11719242 0.1300502 0.30662929 0.09310346 0.09316905199999999 0.069559367 0.21729395 0.064019283 0.19102973 0.080114911 0.12376522 0.16413121 0.24551660000000003 0.59856244 0.78595212 0.63289168 0.601114 0.39655387 0.18487064 0.2394387 0.048780372
0.56434769 0.76388319 0.92430946 1.1767835 1.0195918 1.0565467 0.97452859 0.97208583 0.79756973 0.80532536 0.78101338 0.79397353 0.64513762 0.66608905 0.63825042 0.60022936 0.51806721 0.64637147 0.51211797 0.47815973 0.34186576 0.40103811 0.40939273 0.30471192 0.2577703 0.38755869 0.25075475 0.26046103 0.11719242 0.1300502 0.30662929 0.09310346 0.09316905199999999 0.069559367 0.21729395 0.064019283 0.19102973 0.080114911 0.12376522 0.16413121 0.24551660000000003 0.59856244 0.78595212 0.63289168 0.601114 0.39655387 0.18487064 0.2394387 0.048780372 0.014701305
0.76388319 0.92430946 1.1767835 1.0195918 1.0565467 0.97452859 0.97208583 0.79756973 0.80532536 0.78101338 0.79397353 0.64513762 0.66608905 0.63825042 0.60022936 0.51806721 0.64637147 0.51211797 0.47815973 0.34186576 0.40103811 0.40939273 0.30471192 0.2577703 0.38755869 0.25075475 0.26046103 0.11719242 0.1300502 0.30662929 0.09310346 0.09316905199999999 0.069559367 0.21729395 0.064019283 0.19102973 0.080114911 0.12376522 0.16413121 0.24551660000000003 0.59856244 0.78595212 0.63289168 0.601114 0.39655387 0.18487064 0.2394387 0.048780372 0.014701305 0.056774287
0.92430946 1.1767835 1.0195918 1.0565467 0.97452859 0.97208583 0.79756973 0.80532536 0.78101338 0.79397353 0.64513762 0.66608905 0.63825042 0.60022936 0.51806721 0.64637147 0.51211797 0.47815973 0.34186576 0.40103811 0.40939273 0.30471192 0.2577703 0.38755869 0.25075475 0.26046103 0.11719242 0.1300502 0.30662929 0.09310346 0.09316905199999999 0.069559367 0.21729395 0.064019283 0.19102973 0.080114911 0.12376522 0.16413121 0.24551660000000003 0.59856244 0.78595212 0.63289168 0.601114 0.39655387 0.18487064 0.2394387 0.048780372 0.014701305 0.056774287 -0.159521
1.1767835 1.0195918 1.0565467 0.97452859 0.97208583 0.79756973 0.80532536 0.78101338 0.79397353 0.64513762 0.66608905 0.63825042 0.60022936 0.51806721 0.64637147 0.51211797 0.47815973 0.34186576 0.40103811 0.40939273 0.30471192 0.2577703 0.38755869 0.25075475 0.26046103 0.11719242 0.1300502 0.30662929 0.09310346 0.09316905199999999 0.069559367 0.21729395 0.064019283 0.19102973 0.080114911 0.12376522 0.16413121 0.24551660000000003 0.59856244 0.78595212 0.63289168 0.601114 0.39655387 0.18487064 0.2394387 0.048780372 0.014701305 0.056774287 -0.159521 -0.022906271000000002
1.0195918 1.0565467 0.97452859 0.97208583 0.79756973 0.80532536 0.78101338 0.79397353 0.64513762 0.66608905 0.63825042 0.60022936 0.51806721 0.64637147 0.51211797 0.47815973 0.34186576 0.40103811 0.40939273 0.30471192 0.2577703 0.38755869 0.25075475 0.26046103 0.11719242 0.1300502 0.30662929 0.09310346 0.09316905199999999 0.069559367 0.21729395 0.064019283 0.19102973 0.080114911 0.12376522 0.16413121 0.24551660000000003 0.59856244 0.78595212 0.63289168 0.601114 0.39655387 0.18487064 0.2394387 0.048780372 0.014701305 0.056774287 -0.159521 -0.022906271000000002 -0.13740048
1.0565467 0.97452859 0.97208583 0.79756973 0.80532536 0.78101338 0.79397353 0.64513762 0.66608905 0.63825042 0.60022936 0.51806721 0.64637147 0.51211797 0.47815973 0.34186576 0.40103811 0.40939273 0.30471192 0.2577703 0.38755869 0.25075475 0.26046103 0.11719242 0.1300502 0.30662929 0.09310346 0.09316905199999999 0.069559367 0.21729395 0.064019283 0.19102973 0.080114911 0.12376522 0.16413121 0.24551660000000003 0.59856244 0.78595212 0.63289168 0.601114 0.39655387 0.18487064 0.2394387 0.048780372 0.014701305 0.056774287 -0.159521 -0.022906271000000002 -0.13740048 -0.13660983
0.97452859 0.97208583 0.79756973 0.80532536 0.78101338 0.79397353 0.64513762 0.66608905 0.63825042 0.60022936 0.51806721 0.64637147 0.51211797 0.47815973 0.34186576 0.40103811 0.40939273 0.30471192 0.2577703 0.38755869 0.25075475 0.26046103 0.11719242 0.1300502 0.30662929 0.09310346 0.09316905199999999 0.069559367 0.21729395 0.064019283 0.19102973 0.080114911 0.12376522 0.16413121 0.24551660000000003 0.59856244 0.78595212 0.63289168 0.601114 0.39655387 0.18487064 0.2394387 0.048780372 0.014701305 0.056774287 -0.159521 -0.022906271000000002 -0.13740048 -0.13660983 -0.07217593900000001
0.97208583 0.79756973 0.80532536 0.78101338 0.79397353 0.64513762 0.66608905 0.63825042 0.60022936 0.51806721 0.64637147 0.51211797 0.47815973 0.34186576 0.40103811 0.40939273 0.30471192 0.2577703 0.38755869 0.25075475 0.26046103 0.11719242 0.1300502 0.30662929 0.09310346 0.09316905199999999 0.069559367 0.21729395 0.064019283 0.19102973 0.080114911 0.12376522 0.16413121 0.24551660000000003 0.59856244 0.78595212 0.63289168 0.601114 0.39655387 0.18487064 0.2394387 0.048780372 0.014701305 0.056774287 -0.159521 -0.022906271000000002 -0.13740048 -0.13660983 -0.07217593900000001 -0.082737685
0.79756973 0.80532536 0.78101338 0.79397353 0.64513762 0.66608905 0.63825042 0.60022936 0.51806721 0.64637147 0.51211797 0.47815973 0.34186576 0.40103811 0.40939273 0.30471192 0.2577703 0.38755869 0.25075475 0.26046103 0.11719242 0.1300502 0.30662929 0.09310346 0.09316905199999999 0.069559367 0.21729395 0.064019283 0.19102973 0.080114911 0.12376522 0.16413121 0.24551660000000003 0.59856244 0.78595212 0.63289168 0.601114 0.39655387 0.18487064 0.2394387 0.048780372 0.014701305 0.056774287 -0.159521 -0.022906271000000002 -0.13740048 -0.13660983 -0.07217593900000001 -0.082737685 -0.13846789999999998
0.80532536 0.78101338 0.79397353 0.64513762 0.66608905 0.63825042 0.60022936 0.51806721 0.64637147 0.51211797 0.47815973 0.34186576 0.40103811 0.40939273 0.30471192 0.2577703 0.38755869 0.25075475 0.26046103 0.11719242 0.1300502 0.30662929 0.09310346 0.09316905199999999 0.069559367 0.21729395 0.064019283 0.19102973 0.080114911 0.12376522 0.16413121 0.24551660000000003 0.59856244 0.78595212 0.63289168 0.601114 0.39655387 0.18487064 0.2394387 0.048780372 0.014701305 0.056774287 -0.159521 -0.022906271000000002 -0.13740048 -0.13660983 -0.07217593900000001 -0.082737685 -0.13846789999999998 -0.12039571
0.78101338 0.79397353 0.64513762 0.66608905 0.63825042 0.60022936 0.51806721 0.64637147 0.51211797 0.47815973 0.34186576 0.40103811 0.40939273 0.30471192 0.2577703 0.38755869 0.25075475 0.26046103 0.11719242 0.1300502 0.30662929 0.09310346 0.09316905199999999 0.069559367 0.21729395 0.064019283 0.19102973 0.080114911 0.12376522 0.16413121 0.24551660000000003 0.59856244 0.78595212 0.63289168 0.601114 0.39655387 0.18487064 0.2394387 0.048780372 0.014701305 0.056774287 -0.159521 -0.022906271000000002 -0.13740048 -0.13660983 -0.07217593900000001 -0.082737685 -0.13846789999999998 -0.12039571 -0.08941149400000001
0.79397353 0.64513762 0.66608905 0.63825042 0.60022936 0.51806721 0.64637147 0.51211797 0.47815973 0.34186576 0.40103811 0.40939273 0.30471192 0.2577703 0.38755869 0.25075475 0.26046103 0.11719242 0.1300502 0.30662929 0.09310346 0.09316905199999999 0.069559367 0.21729395 0.064019283 0.19102973 0.080114911 0.12376522 0.16413121 0.24551660000000003 0.59856244 0.78595212 0.63289168 0.601114 0.39655387 0.18487064 0.2394387 0.048780372 0.014701305 0.056774287 -0.159521 -0.022906271000000002 -0.13740048 -0.13660983 -0.07217593900000001 -0.082737685 -0.13846789999999998 -0.12039571 -0.08941149400000001 -0.24314052
0.64513762 0.66608905 0.63825042 0.60022936 0.51806721 0.64637147 0.51211797 0.47815973 0.34186576 0.40103811 0.40939273 0.30471192 0.2577703 0.38755869 0.25075475 0.26046103 0.11719242 0.1300502 0.30662929 0.09310346 0.09316905199999999 0.069559367 0.21729395 0.064019283 0.19102973 0.080114911 0.12376522 0.16413121 0.24551660000000003 0.59856244 0.78595212 0.63289168 0.601114 0.39655387 0.18487064 0.2394387 0.048780372 0.014701305 0.056774287 -0.159521 -0.022906271000000002 -0.13740048 -0.13660983 -0.07217593900000001 -0.082737685 -0.13846789999999998 -0.12039571 -0.08941149400000001 -0.24314052 -0.11970985
0.66608905 0.63825042 0.60022936 0.51806721 0.64637147 0.51211797 0.47815973 0.34186576 0.40103811 0.40939273 0.30471192 0.2577703 0.38755869 0.25075475 0.26046103 0.11719242 0.1300502 0.30662929 0.09310346 0.09316905199999999 0.069559367 0.21729395 0.064019283 0.19102973 0.080114911 0.12376522 0.16413121 0.24551660000000003 0.59856244 0.78595212 0.63289168 0.601114 0.39655387 0.18487064 0.2394387 0.048780372 0.014701305 0.056774287 -0.159521 -0.022906271000000002 -0.13740048 -0.13660983 -0.07217593900000001 -0.082737685 -0.13846789999999998 -0.12039571 -0.08941149400000001 -0.24314052 -0.11970985 0.12404237
0.63825042 0.60022936 0.51806721 0.64637147 0.51211797 0.47815973 0.34186576 0.40103811 0.40939273 0.30471192 0.2577703 0.38755869 0.25075475 0.26046103 0.11719242 0.1300502 0.30662929 0.09310346 0.09316905199999999 0.069559367 0.21729395 0.064019283 0.19102973 0.080114911 0.12376522 0.16413121 0.24551660000000003 0.59856244 0.78595212 0.63289168 0.601114 0.39655387 0.18487064 0.2394387 0.048780372 0.014701305 0.056774287 -0.159521 -0.022906271000000002 -0.13740048 -0.13660983 -0.07217593900000001 -0.082737685 -0.13846789999999998 -0.12039571 -0.08941149400000001 -0.24314052 -0.11970985 0.12404237 0.27346274
