0.17950028 1.0384091999999998 1.9464211999999999 2.7051409 1.6707063999999998 -0.10116654 -1.5788757 -0.75090575 0.17531007 0.064900903 0.44313164 0.034638965 0.0095425646 -0.53952365 -0.7703734999999999 -0.86459765 -1.2169037 -1.1220705 -1.2970508 -1.0562452 -1.2684458 -1.4927306999999999 -1.4998569 -1.6429738999999999 -1.5111231 -1.8409323 -1.5926416 -1.7653278000000001 -2.0782307 -1.8019612 -2.0299619 -2.0198087 -1.9855857 -1.7244608000000001 -1.6564067999999998 -1.5422498 -1.1100299999999999 -0.71823834 -0.30093259999999994 -0.23294287 0.30359266 0.46398306 0.49706412 0.86968963 0.93148206 0.77660642 0.95722736 0.84270652 0.59997909 0.83157962
1.0384091999999998 1.9464211999999999 2.7051409 1.6707063999999998 -0.10116654 -1.5788757 -0.75090575 0.17531007 0.064900903 0.44313164 0.034638965 0.0095425646 -0.53952365 -0.7703734999999999 -0.86459765 -1.2169037 -1.1220705 -1.2970508 -1.0562452 -1.2684458 -1.4927306999999999 -1.4998569 -1.6429738999999999 -1.5111231 -1.8409323 -1.5926416 -1.7653278000000001 -2.0782307 -1.8019612 -2.0299619 -2.0198087 -1.9855857 -1.7244608000000001 -1.6564067999999998 -1.5422498 -1.1100299999999999 -0.71823834 -0.30093259999999994 -0.23294287 0.30359266 0.46398306 0.49706412 0.86968963 0.93148206 0.77660642 0.95722736 0.84270652 0.59997909 0.83157962 0.48951411
1.9464211999999999 2.7051409 1.6707063999999998 -0.10116654 -1.5788757 -0.75090575 0.17531007 0.064900903 0.44313164 0.034638965 0.0095425646 -0.53952365 -0.7703734999999999 -0.86459765 -1.2169037 -1.1220705 -1.2970508 -1.0562452 -1.2684458 -1.4927306999999999 -1.4998569 -1.6429738999999999 -1.5111231 -1.8409323 -1.5926416 -1.7653278000000001 -2.0782307 -1.8019612 -2.0299619 -2.0198087 -1.9855857 -1.7244608000000001 -1.6564067999999998 -1.5422498 -1.1100299999999999 -0.71823834 -0.30093259999999994 -0.23294287 0.30359266 0.46398306 0.49706412 0.86968963 0.93148206 0.77660642 0.95722736 0.84270652 0.59997909 0.83157962 0.48951411 0.3744976
2.7051409 1.6707063999999998 -0.10116654 -1.5788757 -0.75090575 0.17531007 0.064900903 0.44313164 0.034638965 0.0095425646 -0.53952365 -0.7703734999999999 -0.86459765 -1.2169037 -1.1220705 -1.2970508 -1.0562452 -1.2684458 -1.4927306999999999 -1.4998569 -1.6429738999999999 -1.5111231 -1.8409323 -1.5926416 -1.7653278000000001 -2.0782307 -1.8019612 -2.0299619 -2.0198087 -1.9855857 -1.7244608000000001 -1.6564067999999998 -1.5422498 -1.1100299999999999 -0.71823834 -0.30093259999999994 -0.23294287 0.30359266 0.46398306 0.49706412 0.86968963 0.93148206 0.77660642 0.95722736 0.84270652 0.59997909 0.83157962 0.48951411 0.3744976 0.72580573
1.6707063999999998 -0.10116654 -1.5788757 -0.75090575 0.17531007 0.064900903 0.44313164 0.034638965 0.0095425646 -0.53952365 -0.7703734999999999 -0.86459765 -1.2169037 -1.1220705 -1.2970508 -1.0562452 -1.2684458 -1.4927306999999999 -1.4998569 -1.6429738999999999 -1.5111231 -1.8409323 -1.5926416 -1.7653278000000001 -2.0782307 -1.8019612 -2.0299619 -2.0198087 -1.9855857 -1.7244608000000001 -1.6564067999999998 -1.5422498 -1.1100299999999999 -0.71823834 -0.30093259999999994 -0.23294287 0.30359266 0.46398306 0.49706412 0.86968963 0.93148206 0.77660642 0.95722736 0.84270652 0.59997909 0.83157962 0.48951411 0.3744976 0.72580573 0.56427401
-0.10116654 -1.5788757 -0.75090575 0.17531007 0.064900903 0.44313164 0.034638965 0.0095425646 -0.53952365 -0.7703734999999999 -0.86459765 -1.2169037 -1.1220705 -1.2970508 -1.0562452 -1.2684458 -1.4927306999999999 -1.4998569 -1.6429738999999999 -1.5111231 -1.8409323 -1.5926416 -1.7653278000000001 -2.0782307 -1.8019612 -2.0299619 -2.0198087 -1.9855857 -1.7244608000000001 -1.6564067999999998 -1.5422498 -1.1100299999999999 -0.71823834 -0.30093259999999994 -0.23294287 0.30359266 0.46398306 0.49706412 0.86968963 0.93148206 0.77660642 0.95722736 0.84270652 0.59997909 0.83157962 0.48951411 0.3744976 0.72580573 0.56427401 0.66095832
-1.5788757 -0.75090575 0.17531007 0.064900903 0.44313164 0.034638965 0.0095425646 -0.53952365 -0.7703734999999999 -0.86459765 -1.2169037 -1.1220705 -1.2970508 -1.0562452 -1.2684458 -1.4927306999999999 -1.4998569 -1.6429738999999999 -1.5111231 -1.8409323 -1.5926416 -1.7653278000000001 -2.0782307 -1.8019612 -2.0299619 -2.0198087 -1.9855857 -1.7244608000000001 -1.6564067999999998 -1.5422498 -1.1100299999999999 -0.71823834 -0.30093259999999994 -0.23294287 0.30359266 0.46398306 0.49706412 0.86968963 0.93148206 0.77660642 0.95722736 0.84270652 0.59997909 0.83157962 0.48951411 0.3744976 0.72580573 0.56427401 0.66095832 0.52405056
-0.75090575 0.17531007 0.064900903 0.44313164 0.034638965 0.0095425646 -0.53952365 -0.7703734999999999 -0.86459765 -1.2169037 -1.1220705 -1.2970508 -1.0562452 -1.2684458 -1.4927306999999999 -1.4998569 -1.6429738999999999 -1.5111231 -1.8409323 -1.5926416 -1.7653278000000001 -2.0782307 -1.8019612 -2.0299619 -2.0198087 -1.9855857 -1.7244608000000001 -1.6564067999999998 -1.5422498 -1.1100299999999999 -0.71823834 -0.30093259999999994 -0.23294287 0.30359266 0.46398306 0.49706412 0.86968963 0.93148206 0.77660642 0.95722736 0.84270652 0.59997909 0.83157962 0.48951411 0.3744976 0.72580573 0.56427401 0.66095832 0.52405056 0.46671876
0.17531007 0.064900903 0.44313164 0.034638965 0.0095425646 -0.53952365 -0.7703734999999999 -0.86459765 -1.2169037 -1.1220705 -1.2970508 -1.0562452 -1.2684458 -1.4927306999999999 -1.4998569 -1.6429738999999999 -1.5111231 -1.8409323 -1.5926416 -1.7653278000000001 -2.0782307 -1.8019612 -2.0299619 -2.0198087 -1.9855857 -1.7244608000000001 -1.6564067999999998 -1.5422498 -1.1100299999999999 -0.71823834 -0.30093259999999994 -0.23294287 0.30359266 0.46398306 0.49706412 0.86968963 0.93148206 0.77660642 0.95722736 0.84270652 0.59997909 0.83157962 0.48951411 0.3744976 0.72580573 0.56427401 0.66095832 0.52405056 0.46671876 0.61706199
0.064900903 0.44313164 0.034638965 0.0095425646 -0.53952365 -0.7703734999999999 -0.86459765 -1.2169037 -1.1220705 -1.2970508 -1.0562452 -1.2684458 -1.4927306999999999 -1.4998569 -1.6429738999999999 -1.5111231 -1.8409323 -1.5926416 -1.7653278000000001 -2.0782307 -1.8019612 -2.0299619 -2.0198087 -1.9855857 -1.7244608000000001 -1.6564067999999998 -1.5422498 -1.1100299999999999 -0.71823834 -0.30093259999999994 -0.23294287 0.30359266 0.46398306 0.49706412 0.86968963 0.93148206 0.77660642 0.95722736 0.84270652 0.59997909 0.83157962 0.48951411 0.3744976 0.72580573 0.56427401 0.66095832 0.52405056 0.46671876 0.61706199 0.68490133
0.44313164 0.034638965 0.0095425646 -0.53952365 -0.7703734999999999 -0.86459765 -1.2169037 -1.1220705 -1.2970508 -1.0562452 -1.2684458 -1.4927306999999999 -1.4998569 -1.6429738999999999 -1.5111231 -1.8409323 -1.5926416 -1.7653278000000001 -2.0782307 -1.8019612 -2.0299619 -2.0198087 -1.9855857 -1.7244608000000001 -1.6564067999999998 -1.5422498 -1.1100299999999999 -0.71823834 -0.30093259999999994 -0.23294287 0.30359266 0.46398306 0.49706412 0.86968963 0.93148206 0.77660642 0.95722736 0.84270652 0.59997909 0.83157962 0.48951411 0.3744976 0.72580573 0.56427401 0.66095832 0.52405056 0.46671876 0.61706199 0.68490133 0.46143356
0.034638965 0.0095425646 -0.53952365 -0.7703734999999999 -0.86459765 -1.2169037 -1.1220705 -1.2970508 -1.0562452 -1.2684458 -1.4927306999999999 -1.4998569 -1.6429738999999999 -1.5111231 -1.8409323 -1.5926416 -1.7653278000000001 -2.0782307 -1.8019612 -2.0299619 -2.0198087 -1.9855857 -1.7244608000000001 -1.6564067999999998 -1.5422498 -1.1100299999999999 -0.71823834 -0.30093259999999994 -0.23294287 0.30359266 0.46398306 0.49706412 0.86968963 0.93148206 0.77660642 0.95722736 0.84270652 0.59997909 0.83157962 0.48951411 0.3744976 0.72580573 0.56427401 0.66095832 0.52405056 0.46671876 0.61706199 0.68490133 0.46143356 0.50701044
0.0095425646 -0.53952365 -0.7703734999999999 -0.86459765 -1.2169037 -1.1220705 -1.2970508 -1.0562452 -1.2684458 -1.4927306999999999 -1.4998569 -1.6429738999999999 -1.5111231 -1.8409323 -1.5926416 -1.7653278000000001 -2.0782307 -1.8019612 -2.0299619 -2.0198087 -1.9855857 -1.7244608000000001 -1.6564067999999998 -1.5422498 -1.1100299999999999 -0.71823834 -0.30093259999999994 -0.23294287 0.30359266 0.46398306 0.49706412 0.86968963 0.93148206 0.77660642 0.95722736 0.84270652 0.59997909 0.83157962 0.48951411 0.3744976 0.72580573 0.56427401 0.66095832 0.52405056 0.46671876 0.61706199 0.68490133 0.46143356 0.50701044 0.54280183
-0.53952365 -0.7703734999999999 -0.86459765 -1.2169037 -1.1220705 -1.2970508 -1.0562452 -1.2684458 -1.4927306999999999 -1.4998569 -1.6429738999999999 -1.5111231 -1.8409323 -1.5926416 -1.7653278000000001 -2.0782307 -1.8019612 -2.0299619 -2.0198087 -1.9855857 -1.7244608000000001 -1.6564067999999998 -1.5422498 -1.1100299999999999 -0.71823834 -0.30093259999999994 -0.23294287 0.30359266 0.46398306 0.49706412 0.86968963 0.93148206 0.77660642 0.95722736 0.84270652 0.59997909 0.83157962 0.48951411 0.3744976 0.72580573 0.56427401 0.66095832 0.52405056 0.46671876 0.61706199 0.68490133 0.46143356 0.50701044 0.54280183 0.53118055
-0.7703734999999999 -0.86459765 -1.2169037 -1.1220705 -1.2970508 -1.0562452 -1.2684458 -1.4927306999999999 -1.4998569 -1.6429738999999999 -1.5111231 -1.8409323 -1.5926416 -1.7653278000000001 -2.0782307 -1.8019612 -2.0299619 -2.0198087 -1.9855857 -1.7244608000000001 -1.6564067999999998 -1.5422498 -1.1100299999999999 -0.71823834 -0.30093259999999994 -0.23294287 0.30359266 0.46398306 0.49706412 0.86968963 0.93148206 0.77660642 0.95722736 0.84270652 0.59997909 0.83157962 0.48951411 0.3744976 0.72580573 0.56427401 0.66095832 0.52405056 0.46671876 0.61706199 0.68490133 0.46143356 0.50701044 0.54280183 0.53118055 0.73012784
-0.86459765 -1.2169037 -1.1220705 -1.2970508 -1.0562452 -1.2684458 -1.4927306999999999 -1.4998569 -1.6429738999999999 -1.5111231 -1.8409323 -1.5926416 -1.7653278000000001 -2.0782307 -1.8019612 -2.0299619 -2.0198087 -1.9855857 -1.7244608000000001 -1.6564067999999998 -1.5422498 -1.1100299999999999 -0.71823834 -0.30093259999999994 -0.23294287 0.30359266 0.46398306 0.49706412 0.86968963 0.93148206 0.77660642 0.95722736 0.84270652 0.59997909 0.83157962 0.48951411 0.3744976 0.72580573 0.56427401 0.66095832 0.52405056 0.46671876 0.61706199 0.68490133 0.46143356 0.50701044 0.54280183 0.53118055 0.73012784 0.77407468
-1.2169037 -1.1220705 -1.2970508 -1.0562452 -1.2684458 -1.4927306999999999 -1.4998569 -1.6429738999999999 -1.5111231 -1.8409323 -1.5926416 -1.7653278000000001 -2.0782307 -1.8019612 -2.0299619 -2.0198087 -1.9855857 -1.7244608000000001 -1.6564067999999998 -1.5422498 -1.1100299999999999 -0.71823834 -0.30093259999999994 -0.23294287 0.30359266 0.46398306 0.49706412 0.86968963 0.93148206 0.77660642 0.95722736 0.84270652 0.59997909 0.83157962 0.48951411 0.3744976 0.72580573 0.56427401 0.66095832 0.52405056 0.46671876 0.61706199 0.68490133 0.46143356 0.50701044 0.54280183 0.53118055 0.73012784 0.77407468 0.55115241
-1.1220705 -1.2970508 -1.0562452 -1.2684458 -1.4927306999999999 -1.4998569 -1.6429738999999999 -1.5111231 -1.8409323 -1.5926416 -1.7653278000000001 -2.0782307 -1.8019612 -2.0299619 -2.0198087 -1.9855857 -1.7244608000000001 -1.6564067999999998 -1.5422498 -1.1100299999999999 -0.71823834 -0.30093259999999994 -0.23294287 0.30359266 0.46398306 0.49706412 0.86968963 0.93148206 0.77660642 0.95722736 0.84270652 0.59997909 0.83157962 0.48951411 0.3744976 0.72580573 0.56427401 0.66095832 0.52405056 0.46671876 0.61706199 0.68490133 0.46143356 0.50701044 0.54280183 0.53118055 0.73012784 0.77407468 0.55115241 0.41732696
-1.2970508 -1.0562452 -1.2684458 -1.4927306999999999 -1.4998569 -1.6429738999999999 -1.5111231 -1.8409323 -1.5926416 -1.7653278000000001 -2.0782307 -1.8019612 -2.0299619 -2.0198087 -1.9855857 -1.7244608000000001 -1.6564067999999998 -1.5422498 -1.1100299999999999 -0.71823834 -0.30093259999999994 -0.23294287 0.30359266 0.46398306 0.49706412 0.86968963 0.93148206 0.77660642 0.95722736 0.84270652 0.59997909 0.83157962 0.48951411 0.3744976 0.72580573 0.56427401 0.66095832 0.52405056 0.46671876 0.61706199 0.68490133 0.46143356 0.50701044 0.54280183 0.53118055 0.73012784 0.77407468 0.55115241 0.41732696 0.58127611
-1.0562452 -1.2684458 -1.4927306999999999 -1.4998569 -1.6429738999999999 -1.5111231 -1.8409323 -1.5926416 -1.7653278000000001 -2.0782307 -1.8019612 -2.0299619 -2.0198087 -1.9855857 -1.7244608000000001 -1.6564067999999998 -1.5422498 -1.1100299999999999 -0.71823834 -0.30093259999999994 -0.23294287 0.30359266 0.46398306 0.49706412 0.86968963 0.93148206 0.77660642 0.95722736 0.84270652 0.59997909 0.83157962 0.48951411 0.3744976 0.72580573 0.56427401 0.66095832 0.52405056 0.46671876 0.61706199 0.68490133 0.46143356 0.50701044 0.54280183 0.53118055 0.73012784 0.77407468 0.55115241 0.41732696 0.58127611 0.49454658
-1.2684458 -1.4927306999999999 -1.4998569 -1.6429738999999999 -1.5111231 -1.8409323 -1.5926416 -1.7653278000000001 -2.0782307 -1.8019612 -2.0299619 -2.0198087 -1.9855857 -1.7244608000000001 -1.6564067999999998 -1.5422498 -1.1100299999999999 -0.71823834 -0.30093259999999994 -0.23294287 0.30359266 0.46398306 0.49706412 0.86968963 0.93148206 0.77660642 0.95722736 0.84270652 0.59997909 0.83157962 0.48951411 0.3744976 0.72580573 0.56427401 0.66095832 0.52405056 0.46671876 0.61706199 0.68490133 0.46143356 0.50701044 0.54280183 0.53118055 0.73012784 0.77407468 0.55115241 0.41732696 0.58127611 0.49454658 0.49244215
-1.4927306999999999 -1.4998569 -1.6429738999999999 -1.5111231 -1.8409323 -1.5926416 -1.7653278000000001 -2.0782307 -1.8019612 -2.0299619 -2.0198087 -1.9855857 -1.7244608000000001 -1.6564067999999998 -1.5422498 -1.1100299999999999 -0.71823834 -0.30093259999999994 -0.23294287 0.30359266 0.46398306 0.49706412 0.86968963 0.93148206 0.77660642 0.95722736 0.84270652 0.59997909 0.83157962 0.48951411 0.3744976 0.72580573 0.56427401 0.66095832 0.52405056 0.46671876 0.61706199 0.68490133 0.46143356 0.50701044 0.54280183 0.53118055 0.73012784 0.77407468 0.55115241 0.41732696 0.58127611 0.49454658 0.49244215 0.48735228
-1.4998569 -1.6429738999999999 -1.5111231 -1.8409323 -1.5926416 -1.7653278000000001 -2.0782307 -1.8019612 -2.0299619 -2.0198087 -1.9855857 -1.7244608000000001 -1.6564067999999998 -1.5422498 -1.1100299999999999 -0.71823834 -0.30093259999999994 -0.23294287 0.30359266 0.46398306 0.49706412 0.86968963 0.93148206 0.77660642 0.95722736 0.84270652 0.59997909 0.83157962 0.48951411 0.3744976 0.72580573 0.56427401 0.66095832 0.52405056 0.46671876 0.61706199 0.68490133 0.46143356 0.50701044 0.54280183 0.53118055 0.73012784 0.77407468 0.55115241 0.41732696 0.58127611 0.49454658 0.49244215 0.48735228 0.46125489
-1.6429738999999999 -1.5111231 -1.8409323 -1.5926416 -1.7653278000000001 -2.0782307 -1.8019612 -2.0299619 -2.0198087 -1.9855857 -1.7244608000000001 -1.6564067999999998 -1.5422498 -1.1100299999999999 -0.71823834 -0.30093259999999994 -0.23294287 0.30359266 0.46398306 0.49706412 0.86968963 0.93148206 0.77660642 0.95722736 0.84270652 0.59997909 0.83157962 0.48951411 0.3744976 0.72580573 0.56427401 0.66095832 0.52405056 0.46671876 0.61706199 0.68490133 0.46143356 0.50701044 0.54280183 0.53118055 0.73012784 0.77407468 0.55115241 0.41732696 0.58127611 0.49454658 0.49244215 0.48735228 0.46125489 0.64845969
-1.5111231 -1.8409323 -1.5926416 -1.7653278000000001 -2.0782307 -1.8019612 -2.0299619 -2.0198087 -1.9855857 -1.7244608000000001 -1.6564067999999998 -1.5422498 -1.1100299999999999 -0.71823834 -0.30093259999999994 -0.23294287 0.30359266 0.46398306 0.49706412 0.86968963 0.93148206 0.77660642 0.95722736 0.84270652 0.59997909 0.83157962 0.48951411 0.3744976 0.72580573 0.56427401 0.66095832 0.52405056 0.46671876 0.61706199 0.68490133 0.46143356 0.50701044 0.54280183 0.53118055 0.73012784 0.77407468 0.55115241 0.41732696 0.58127611 0.49454658 0.49244215 0.48735228 0.46125489 0.64845969 0.99879183
-1.8409323 -1.5926416 -1.7653278000000001 -2.0782307 -1.8019612 -2.0299619 -2.0198087 -1.9855857 -1.7244608000000001 -1.6564067999999998 -1.5422498 -1.1100299999999999 -0.71823834 -0.30093259999999994 -0.23294287 0.30359266 0.46398306 0.49706412 0.86968963 0.93148206 0.77660642 0.95722736 0.84270652 0.59997909 0.83157962 0.48951411 0.3744976 0.72580573 0.56427401 0.66095832 0.52405056 0.46671876 0.61706199 0.68490133 0.46143356 0.50701044 0.54280183 0.53118055 0.73012784 0.77407468 0.55115241 0.41732696 0.58127611 0.49454658 0.49244215 0.48735228 0.46125489 0.64845969 0.99879183 0.96269761
-1.5926416 -1.7653278000000001 -2.0782307 -1.8019612 -2.0299619 -2.0198087 -1.9855857 -1.7244608000000001 -1.6564067999999998 -1.5422498 -1.1100299999999999 -0.71823834 -0.30093259999999994 -0.23294287 0.30359266 0.46398306 0.49706412 0.86968963 0.93148206 0.77660642 0.95722736 0.84270652 0.59997909 0.83157962 0.48951411 0.3744976 0.72580573 0.56427401 0.66095832 0.52405056 0.46671876 0.61706199 0.68490133 0.46143356 0.50701044 0.54280183 0.53118055 0.73012784 0.77407468 0.55115241 0.41732696 0.58127611 0.49454658 0.49244215 0.48735228 0.46125489 0.64845969 0.99879183 0.96269761 1.0421928
-1.7653278000000001 -2.0782307 -1.8019612 -2.0299619 -2.0198087 -1.9855857 -1.7244608000000001 -1.6564067999999998 -1.5422498 -1.1100299999999999 -0.71823834 -0.30093259999999994 -0.23294287 0.30359266 0.46398306 0.49706412 0.86968963 0.93148206 0.77660642 0.95722736 0.84270652 0.59997909 0.83157962 0.48951411 0.3744976 0.72580573 0.56427401 0.66095832 0.52405056 0.46671876 0.61706199 0.68490133 0.46143356 0.50701044 0.54280183 0.53118055 0.73012784 0.77407468 0.55115241 0.41732696 0.58127611 0.49454658 0.49244215 0.48735228 0.46125489 0.64845969 0.99879183 0.96269761 1.0421928 0.75878503
-2.0782307 -1.8019612 -2.0299619 -2.0198087 -1.9855857 -1.7244608000000001 -1.6564067999999998 -1.5422498 -1.1100299999999999 -0.71823834 -0.30093259999999994 -0.23294287 0.30359266 0.46398306 0.49706412 0.86968963 0.93148206 0.77660642 0.95722736 0.84270652 0.59997909 0.83157962 0.48951411 0.3744976 0.72580573 0.56427401 0.66095832 0.52405056 0.46671876 0.61706199 0.68490133 0.46143356 0.50701044 0.54280183 0.53118055 0.73012784 0.77407468 0.55115241 0.41732696 0.58127611 0.49454658 0.49244215 0.48735228 0.46125489 0.64845969 0.99879183 0.96269761 1.0421928 0.75878503 0.61377296
-1.8019612 -2.0299619 -2.0198087 -1.9855857 -1.7244608000000001 -1.6564067999999998 -1.5422498 -1.1100299999999999 -0.71823834 -0.30093259999999994 -0.23294287 0.30359266 0.46398306 0.49706412 0.86968963 0.93148206 0.77660642 0.95722736 0.84270652 0.59997909 0.83157962 0.48951411 0.3744976 0.72580573 0.56427401 0.66095832 0.52405056 0.46671876 0.61706199 0.68490133 0.46143356 0.50701044 0.54280183 0.53118055 0.73012784 0.77407468 0.55115241 0.41732696 0.58127611 0.49454658 0.49244215 0.48735228 0.46125489 0.64845969 0.99879183 0.96269761 1.0421928 0.75878503 0.61377296 0.73969574
-2.0299619 -2.0198087 -1.9855857 -1.7244608000000001 -1.6564067999999998 -1.5422498 -1.1100299999999999 -0.71823834 -0.30093259999999994 -0.23294287 0.30359266 0.46398306 0.49706412 0.86968963 0.93148206 0.77660642 0.95722736 0.84270652 0.59997909 0.83157962 0.48951411 0.3744976 0.72580573 0.56427401 0.66095832 0.52405056 0.46671876 0.61706199 0.68490133 0.46143356 0.50701044 0.54280183 0.53118055 0.73012784 0.77407468 0.55115241 0.41732696 0.58127611 0.49454658 0.49244215 0.48735228 0.46125489 0.64845969 0.99879183 0.96269761 1.0421928 0.75878503 0.61377296 0.73969574 0.41964707
-2.0198087 -1.9855857 -1.7244608000000001 -1.6564067999999998 -1.5422498 -1.1100299999999999 -0.71823834 -0.30093259999999994 -0.23294287 0.30359266 0.46398306 0.49706412 0.86968963 0.93148206 0.77660642 0.95722736 0.84270652 0.59997909 0.83157962 0.48951411 0.3744976 0.72580573 0.56427401 0.66095832 0.52405056 0.46671876 0.61706199 0.68490133 0.46143356 0.50701044 0.54280183 0.53118055 0.73012784 0.77407468 0.55115241 0.41732696 0.58127611 0.49454658 0.49244215 0.48735228 0.46125489 0.64845969 0.99879183 0.96269761 1.0421928 0.75878503 0.61377296 0.73969574 0.41964707 0.58649517
-1.9855857 -1.7244608000000001 -1.6564067999999998 -1.5422498 -1.1100299999999999 -0.71823834 -0.30093259999999994 -0.23294287 0.30359266 0.46398306 0.49706412 0.86968963 0.93148206 0.77660642 0.95722736 0.84270652 0.59997909 0.83157962 0.48951411 0.3744976 0.72580573 0.56427401 0.66095832 0.52405056 0.46671876 0.61706199 0.68490133 0.46143356 0.50701044 0.54280183 0.53118055 0.73012784 0.77407468 0.55115241 0.41732696 0.58127611 0.49454658 0.49244215 0.48735228 0.46125489 0.64845969 0.99879183 0.96269761 1.0421928 0.75878503 0.61377296 0.73969574 0.41964707 0.58649517 0.34465915
-1.7244608000000001 -1.6564067999999998 -1.5422498 -1.1100299999999999 -0.71823834 -0.30093259999999994 -0.23294287 0.30359266 0.46398306 0.49706412 0.86968963 0.93148206 0.77660642 0.95722736 0.84270652 0.59997909 0.83157962 0.48951411 0.3744976 0.72580573 0.56427401 0.66095832 0.52405056 0.46671876 0.61706199 0.68490133 0.46143356 0.50701044 0.54280183 0.53118055 0.73012784 0.77407468 0.55115241 0.41732696 0.58127611 0.49454658 0.49244215 0.48735228 0.46125489 0.64845969 0.99879183 0.96269761 1.0421928 0.75878503 0.61377296 0.73969574 0.41964707 0.58649517 0.34465915 0.20750257
-1.6564067999999998 -1.5422498 -1.1100299999999999 -0.71823834 -0.30093259999999994 -0.23294287 0.30359266 0.46398306 0.49706412 0.86968963 0.93148206 0.77660642 0.95722736 0.84270652 0.59997909 0.83157962 0.48951411 0.3744976 0.72580573 0.56427401 0.66095832 0.52405056 0.46671876 0.61706199 0.68490133 0.46143356 0.50701044 0.54280183 0.53118055 0.73012784 0.77407468 0.55115241 0.41732696 0.58127611 0.49454658 0.49244215 0.48735228 0.46125489 0.64845969 0.99879183 0.96269761 1.0421928 0.75878503 0.61377296 0.73969574 0.41964707 0.58649517 0.34465915 0.20750257 0.52698019
-1.5422498 -1.1100299999999999 -0.71823834 -0.30093259999999994 -0.23294287 0.30359266 0.46398306 0.49706412 0.86968963 0.93148206 0.77660642 0.95722736 0.84270652 0.59997909 0.83157962 0.48951411 0.3744976 0.72580573 0.56427401 0.66095832 0.52405056 0.46671876 0.61706199 0.68490133 0.46143356 0.50701044 0.54280183 0.53118055 0.73012784 0.77407468 0.55115241 0.41732696 0.58127611 0.49454658 0.49244215 0.48735228 0.46125489 0.64845969 0.99879183 0.96269761 1.0421928 0.75878503 0.61377296 0.73969574 0.41964707 0.58649517 0.34465915 0.20750257 0.52698019 0.27258373
-1.1100299999999999 -0.71823834 -0.30093259999999994 -0.23294287 0.30359266 0.46398306 0.49706412 0.86968963 0.93148206 0.77660642 0.95722736 0.84270652 0.59997909 0.83157962 0.48951411 0.3744976 0.72580573 0.56427401 0.66095832 0.52405056 0.46671876 0.61706199 0.68490133 0.46143356 0.50701044 0.54280183 0.53118055 0.73012784 0.77407468 0.55115241 0.41732696 0.58127611 0.49454658 0.49244215 0.48735228 0.46125489 0.64845969 0.99879183 0.96269761 1.0421928 0.75878503 0.61377296 0.73969574 0.41964707 0.58649517 0.34465915 0.20750257 0.52698019 0.27258373 0.34840968
-0.71823834 -0.30093259999999994 -0.23294287 0.30359266 0.46398306 0.49706412 0.86968963 0.93148206 0.77660642 0.95722736 0.84270652 0.59997909 0.83157962 0.48951411 0.3744976 0.72580573 0.56427401 0.66095832 0.52405056 0.46671876 0.61706199 0.68490133 0.46143356 0.50701044 0.54280183 0.53118055 0.73012784 0.77407468 0.55115241 0.41732696 0.58127611 0.49454658 0.49244215 0.48735228 0.46125489 0.64845969 0.99879183 0.96269761 1.0421928 0.75878503 0.61377296 0.73969574 0.41964707 0.58649517 0.34465915 0.20750257 0.52698019 0.27258373 0.34840968 0.32432338
-0.30093259999999994 -0.23294287 0.30359266 0.46398306 0.49706412 0.86968963 0.93148206 0.77660642 0.95722736 0.84270652 0.59997909 0.83157962 0.48951411 0.3744976 0.72580573 0.56427401 0.66095832 0.52405056 0.46671876 0.61706199 0.68490133 0.46143356 0.50701044 0.54280183 0.53118055 0.73012784 0.77407468 0.55115241 0.41732696 0.58127611 0.49454658 0.49244215 0.48735228 0.46125489 0.64845969 0.99879183 0.96269761 1.0421928 0.75878503 0.61377296 0.73969574 0.41964707 0.58649517 0.34465915 0.20750257 0.52698019 0.27258373 0.34840968 0.32432338 0.33048863
-0.23294287 0.30359266 0.46398306 0.49706412 0.86968963 0.93148206 0.77660642 0.95722736 0.84270652 0.59997909 0.83157962 0.48951411 0.3744976 0.72580573 0.56427401 0.66095832 0.52405056 0.46671876 0.61706199 0.68490133 0.46143356 0.50701044 0.54280183 0.53118055 0.73012784 0.77407468 0.55115241 0.41732696 0.58127611 0.49454658 0.49244215 0.48735228 0.46125489 0.64845969 0.99879183 0.96269761 1.0421928 0.75878503 0.61377296 0.73969574 0.41964707 0.58649517 0.34465915 0.20750257 0.52698019 0.27258373 0.34840968 0.32432338 0.33048863 0.11195293
0.30359266 0.46398306 0.49706412 0.86968963 0.93148206 0.77660642 0.95722736 0.84270652 0.59997909 0.83157962 0.48951411 0.3744976 0.72580573 0.56427401 0.66095832 0.52405056 0.46671876 0.61706199 0.68490133 0.46143356 0.50701044 0.54280183 0.53118055 0.73012784 0.77407468 0.55115241 0.41732696 0.58127611 0.49454658 0.49244215 0.48735228 0.46125489 0.64845969 0.99879183 0.96269761 1.0421928 0.75878503 0.61377296 0.73969574 0.41964707 0.58649517 0.34465915 0.20750257 0.52698019 0.27258373 0.34840968 0.32432338 0.33048863 0.11195293 0.44894807
0.46398306 0.49706412 0.86968963 0.93148206 0.77660642 0.95722736 0.84270652 0.59997909 0.83157962 0.48951411 0.3744976 0.72580573 0.56427401 0.66095832 0.52405056 0.46671876 0.61706199 0.68490133 0.46143356 0.50701044 0.54280183 0.53118055 0.73012784 0.77407468 0.55115241 0.41732696 0.58127611 0.49454658 0.49244215 0.48735228 0.46125489 0.64845969 0.99879183 0.96269761 1.0421928 0.75878503 0.61377296 0.73969574 0.41964707 0.58649517 0.34465915 0.20750257 0.52698019 0.27258373 0.34840968 0.32432338 0.33048863 0.11195293 0.44894807 0.56713171
0.49706412 0.86968963 0.93148206 0.77660642 0.95722736 0.84270652 0.59997909 0.83157962 0.48951411 0.3744976 0.72580573 0.56427401 0.66095832 0.52405056 0.46671876 0.61706199 0.68490133 0.46143356 0.50701044 0.54280183 0.53118055 0.73012784 0.77407468 0.55115241 0.41732696 0.58127611 0.49454658 0.49244215 0.48735228 0.46125489 0.64845969 0.99879183 0.96269761 1.0421928 0.75878503 0.61377296 0.73969574 0.41964707 0.58649517 0.34465915 0.20750257 0.52698019 0.27258373 0.34840968 0.32432338 0.33048863 0.11195293 0.44894807 0.56713171 0.13675737
0.86968963 0.93148206 0.77660642 0.95722736 0.84270652 0.59997909 0.83157962 0.48951411 0.3744976 0.72580573 0.56427401 0.66095832 0.52405056 0.46671876 0.61706199 0.68490133 0.46143356 0.50701044 0.54280183 0.53118055 0.73012784 0.77407468 0.55115241 0.41732696 0.58127611 0.49454658 0.49244215 0.48735228 0.46125489 0.64845969 0.99879183 0.96269761 1.0421928 0.75878503 0.61377296 0.73969574 0.41964707 0.58649517 0.34465915 0.20750257 0.52698019 0.27258373 0.34840968 0.32432338 0.33048863 0.11195293 0.44894807 0.56713171 0.13675737 0.44476796
0.93148206 0.77660642 0.95722736 0.84270652 0.59997909 0.83157962 0.48951411 0.3744976 0.72580573 0.56427401 0.66095832 0.52405056 0.46671876 0.61706199 0.68490133 0.46143356 0.50701044 0.54280183 0.53118055 0.73012784 0.77407468 0.55115241 0.41732696 0.58127611 0.49454658 0.49244215 0.48735228 0.46125489 0.64845969 0.99879183 0.96269761 1.0421928 0.75878503 0.61377296 0.73969574 0.41964707 0.58649517 0.34465915 0.20750257 0.52698019 0.27258373 0.34840968 0.32432338 0.33048863 0.11195293 0.44894807 0.56713171 0.13675737 0.44476796 0.15104997
0.77660642 0.95722736 0.84270652 0.59997909 0.83157962 0.48951411 0.3744976 0.72580573 0.56427401 0.66095832 0.52405056 0.46671876 0.61706199 0.68490133 0.46143356 0.50701044 0.54280183 0.53118055 0.73012784 0.77407468 0.55115241 0.41732696 0.58127611 0.49454658 0.49244215 0.48735228 0.46125489 0.64845969 0.99879183 0.96269761 1.0421928 0.75878503 0.61377296 0.73969574 0.41964707 0.58649517 0.34465915 0.20750257 0.52698019 0.27258373 0.34840968 0.32432338 0.33048863 0.11195293 0.44894807 0.56713171 0.13675737 0.44476796 0.15104997 0.19337751
0.95722736 0.84270652 0.59997909 0.83157962 0.48951411 0.3744976 0.72580573 0.56427401 0.66095832 0.52405056 0.46671876 0.61706199 0.68490133 0.46143356 0.50701044 0.54280183 0.53118055 0.73012784 0.77407468 0.55115241 0.41732696 0.58127611 0.49454658 0.49244215 0.48735228 0.46125489 0.64845969 0.99879183 0.96269761 1.0421928 0.75878503 0.61377296 0.73969574 0.41964707 0.58649517 0.34465915 0.20750257 0.52698019 0.27258373 0.34840968 0.32432338 0.33048863 0.11195293 0.44894807 0.56713171 0.13675737 0.44476796 0.15104997 0.19337751 0.45170853
